-0	-0	-0	-0	-0	-0	-0	-0	-0	-0	0	0.01	0.01	-0	-0.03	-0.05	-0.05	0	0.13	0.36	0.66	1.01	1.37	1.72	2.06	2.4	2.79	3.24	3.8	4.42	5.06	5.66	6.2	6.68	7.15	7.68	8.31	9.14	10.09	11.04	11.88	12.56	13.14	13.76	14.65	15.96	17.91	20.32	22.9	25.38	27.58	29.57	31.68	34.32	37.81	42.54	48.15	54.1	59.83	64.97	69.58	74.14	79.34	85.71	93.76	103	112.62	121.73	129.77	136.75	143.3	150.75	157.77	166.64	177.95	191.79	206.97	220.57	228.25	225.36	208.53	176.87	132.76	80.05	23.07	-34.94	-92.44	-149.16	-205.23	-260.37	-313.74	-363.87	-409.83	-450.91	-486.5	-515.74	-537.23	-549.22	-549.96	-538.37	-514.21	-478.67	-433.88	-382.45	-327.02	-269.84	-212.63	-156.66	-102.95	-52.37	-5.9	35.58	71.43	101.35	125.5	144.38	158.69	169.15	176.37	180.75	182.57	182.07	179.51	175.23	169.65	163.18	156.15	148.81
93.76	103	112.62	121.73	129.77	136.75	143.3	150.75	157.77	166.64	177.95	191.79	206.97	220.57	228.25	225.36	208.53	176.87	132.76	80.05	23.07	-34.94	-92.44	-149.16	-205.23	-260.37	-313.74	-363.87	-409.83	-450.91	-486.5	-515.74	-537.23	-549.22	-549.96	-538.37	-514.21	-478.67	-433.88	-382.45	-327.02	-269.84	-212.63	-156.66	-102.95	-52.37	-5.9	35.58	71.43	101.35	125.5	144.38	158.69	169.15	176.37	180.75	182.57	182.07	179.51	175.23	169.65	163.18	156.15	148.81	141.3	133.69	126.02	118.33	110.69	103.16	95.8	88.68	81.83	75.25	68.95	62.95	57.25	51.86	46.78	42.03	37.59	33.45	29.61	26.07	22.81	19.83	17.11	14.67	12.48	10.54	8.83	7.35	6.07	4.97	4.05	3.27	2.62	2.09	1.65	1.3	1.01	0.79	0.61	0.47	0.37	0.29	0.23	0.19	0.17	0.16	0.16	0.17	0.19	0.21	0.24	0.28	0.32	0.36	0.41	0.45	0.5	0.55	0.6	0.65	0.71	0.77	0.84	0.91
141.3	133.69	126.02	118.33	110.69	103.16	95.8	88.68	81.83	75.25	68.95	62.95	57.25	51.86	46.78	42.03	37.59	33.45	29.61	26.07	22.81	19.83	17.11	14.67	12.48	10.54	8.83	7.35	6.07	4.97	4.05	3.27	2.62	2.09	1.65	1.3	1.01	0.79	0.61	0.47	0.37	0.29	0.23	0.19	0.17	0.16	0.16	0.17	0.19	0.21	0.24	0.28	0.32	0.36	0.41	0.45	0.5	0.55	0.6	0.65	0.71	0.77	0.84	0.91	0.99	1.07	1.17	1.27	1.39	1.52	1.67	1.84	2.02	2.23	2.45	2.71	2.98	3.29	3.63	4	4.4	4.84	5.32	5.83	6.38	6.98	7.62	8.3	9.02	9.8	10.62	11.48	12.4	13.35	14.36	15.43	16.57	17.77	19.02	20.3	21.58	22.78	23.83	24.62	25.02	24.92	24.18	22.74	20.55	17.63	14.06	9.91	5.38	0.68	-3.98	-8.37	-12.28	-15.56	-18.09	-19.83	-20.83	-21.18	-21.01	-20.45	-19.58	-18.47	-17.15	-15.64
0.99	1.07	1.17	1.27	1.39	1.52	1.67	1.84	2.02	2.23	2.45	2.71	2.98	3.29	3.63	4	4.4	4.84	5.32	5.83	6.38	6.98	7.62	8.3	9.02	9.8	10.62	11.48	12.4	13.35	14.36	15.43	16.57	17.77	19.02	20.3	21.58	22.78	23.83	24.62	25.02	24.92	24.18	22.74	20.55	17.63	14.06	9.91	5.38	0.68	-3.98	-8.37	-12.28	-15.56	-18.09	-19.83	-20.83	-21.18	-21.01	-20.45	-19.58	-18.47	-17.15	-15.64	-13.99	-12.25	-10.46	-8.72	-7.06	-5.44	-3.76	-1.92	0.15	2.45	4.93	7.49	9.92	12.09	14.05	15.95	17.97	20.24	22.68	25.1	27.29	28.71	29.19	28.94	28.43	28.23	28.72	29.92	31.47	32.87	33.19	32.07	29.84	27.36	25.59	25.17	26.01	27.34	28.05	26.47	21.83	14.38	4.99	-5.32	-16.17	-28.42	-44.44	-62.67	-84.03	-109.76	-140.85	-177.22	-216.77	-254.9	-284.92	-299.86	-294.85	-269.82	-229.03	-179.68	-129.28	-83.36	-44.41	-12.39
-13.99	-12.25	-10.46	-8.72	-7.06	-5.44	-3.76	-1.92	0.15	2.45	4.93	7.49	9.92	12.09	14.05	15.95	17.97	20.24	22.68	25.1	27.29	28.71	29.19	28.94	28.43	28.23	28.72	29.92	31.47	32.87	33.19	32.07	29.84	27.36	25.59	25.17	26.01	27.34	28.05	26.47	21.83	14.38	4.99	-5.32	-16.17	-28.42	-44.44	-62.67	-84.03	-109.76	-140.85	-177.22	-216.77	-254.9	-284.92	-299.86	-294.85	-269.82	-229.03	-179.68	-129.28	-83.36	-44.41	-12.39	13.84	35.26	51.66	62.75	68.82	71.04	71.25	71.19	71.87	73.3	74.68	74.65	72.46	68.31	63.33	59.07	56.66	56.2	56.6	56.03	52.66	45.67	35.58	23.95	12.7	3.28	-3.81	-9.14	-13.96	-19.8	-27.79	-38.36	-51.04	-64.47	-76.58	-84.86	-87.03	-81.67	-68.78	-49.92	-27.72	-5.14	15.42	32.54	45.82	55.5	62.05	65.8	67.07	66.15	63.51	59.78	55.61	51.5	47.73	44.33	41.26	38.45	35.92	33.77	32.08	30.82	29.68	28.12
13.84	35.26	51.66	62.75	68.82	71.04	71.25	71.19	71.87	73.3	74.68	74.65	72.46	68.31	63.33	59.07	56.66	56.2	56.6	56.03	52.66	45.67	35.58	23.95	12.7	3.28	-3.81	-9.14	-13.96	-19.8	-27.79	-38.36	-51.04	-64.47	-76.58	-84.86	-87.03	-81.67	-68.78	-49.92	-27.72	-5.14	15.42	32.54	45.82	55.5	62.05	65.8	67.07	66.15	63.51	59.78	55.61	51.5	47.73	44.33	41.26	38.45	35.92	33.77	32.08	30.82	29.68	28.12	25.47	21.24	15.32	8.15	0.45	-6.88	-13.4	-19.25	-25.2	-32.39	-41.7	-53.17	-65.35	-75.49	-80.13	-76.43	-63.28	-41.98	-15.8	11.09	35.04	53.9	67.16	75.43	79.69	80.7	78.8	74.39	68.05	60.74	53.54	47.29	42.36	38.67	35.91	33.78	32.17	31.11	30.51	30.01	28.85	26.16	21.37	14.48	6.21	-2.4	-10.4	-17.47	-24.02	-31	-39.4	-49.78	-61.85	-74.38	-85.34	-92.26	-92.86	-85.6	-70.36	-48.61	-23.14	2.65	25.64	43.79
25.47	21.24	15.32	8.15	0.45	-6.88	-13.4	-19.25	-25.2	-32.39	-41.7	-53.17	-65.35	-75.49	-80.13	-76.43	-63.28	-41.98	-15.8	11.09	35.04	53.9	67.16	75.43	79.69	80.7	78.8	74.39	68.05	60.74	53.54	47.29	42.36	38.67	35.91	33.78	32.17	31.11	30.51	30.01	28.85	26.16	21.37	14.48	6.21	-2.4	-10.4	-17.47	-24.02	-31	-39.4	-49.78	-61.85	-74.38	-85.34	-92.26	-92.86	-85.6	-70.36	-48.61	-23.14	2.65	25.64	43.79	56.39	63.87	67.28	67.72	66.07	62.95	58.86	54.23	49.43	44.73	40.24	35.97	31.94	28.19	24.86	21.98	19.45	16.93	13.89	9.85	4.54	-1.97	-9.36	-17.2	-25.2	-33.34	-41.93	-51.45	-62.2	-73.85	-85.11	-93.85	-97.44	-93.82	-82.2	-63.59	-40.61	-16.59	5.45	23.63	37.5	47.61	54.83	59.84	62.82	63.65	62.19	58.44	52.82	46.05	39.08	32.83	27.97	24.69	22.64	21.09	19.15	16.14	11.91	6.85	1.54	-3.47	-8.08	-12.7
56.39	63.87	67.28	67.72	66.07	62.95	58.86	54.23	49.43	44.73	40.24	35.97	31.94	28.19	24.86	21.98	19.45	16.93	13.89	9.85	4.54	-1.97	-9.36	-17.2	-25.2	-33.34	-41.93	-51.45	-62.2	-73.85	-85.11	-93.85	-97.44	-93.82	-82.2	-63.59	-40.61	-16.59	5.45	23.63	37.5	47.61	54.83	59.84	62.82	63.65	62.19	58.44	52.82	46.05	39.08	32.83	27.97	24.69	22.64	21.09	19.15	16.14	11.91	6.85	1.54	-3.47	-8.08	-12.7	-18.05	-24.91	-33.79	-44.68	-56.96	-69.44	-80.31	-87.46	-88.85	-83.12	-70.11	-51.09	-28.57	-5.5	15.49	32.7	45.5	54.09	59.03	60.88	60.07	56.84	51.55	44.77	37.37	30.33	24.55	20.52	18.08	16.55	15.03	12.79	9.6	5.71	1.59	-2.36	-6.08	-9.87	-14.19	-19.49	-26.14	-34.36	-44.22	-55.46	-67.14	-77.55	-84.43	-85.47	-79.23	-65.67	-46.31	-23.78	-0.99	19.64	36.69	49.71	58.82	64.35	66.55	65.66	62.03	56.32	49.43	42.47
-18.05	-24.91	-33.79	-44.68	-56.96	-69.44	-80.31	-87.46	-88.85	-83.12	-70.11	-51.09	-28.57	-5.5	15.49	32.7	45.5	54.09	59.03	60.88	60.07	56.84	51.55	44.77	37.37	30.33	24.55	20.52	18.08	16.55	15.03	12.79	9.6	5.71	1.59	-2.36	-6.08	-9.87	-14.19	-19.49	-26.14	-34.36	-44.22	-55.46	-67.14	-77.55	-84.43	-85.47	-79.23	-65.67	-46.31	-23.78	-0.99	19.64	36.69	49.71	58.82	64.35	66.55	65.66	62.03	56.32	49.43	42.47	36.33	31.62	28.34	26.03	23.91	21.29	17.78	13.44	8.7	3.97	-0.57	-5.21	-10.55	-17.17	-25.39	-35.15	-46.13	-57.95	-70.1	-81.79	-91.68	-97.84	-98.14	-91.02	-76.26	-55.37	-31.21	-7.06	14.38	31.68	44.72	54.13	60.65	64.63	65.99	64.5	60.26	53.93	46.73	40.07	34.97	31.66	29.56	27.58	24.8	20.82	15.97	10.96	6.33	2.09	-2.31	-7.63	-14.49	-23.04	-33.19	-44.7	-57.32	-70.48	-82.96	-92.76	-97.4	-94.9	-84.5	-67.17
36.33	31.62	28.34	26.03	23.91	21.29	17.78	13.44	8.7	3.97	-0.57	-5.21	-10.55	-17.17	-25.39	-35.15	-46.13	-57.95	-70.1	-81.79	-91.68	-97.84	-98.14	-91.02	-76.26	-55.37	-31.21	-7.06	14.38	31.68	44.72	54.13	60.65	64.63	65.99	64.5	60.26	53.93	46.73	40.07	34.97	31.66	29.56	27.58	24.8	20.82	15.97	10.96	6.33	2.09	-2.31	-7.63	-14.49	-23.04	-33.19	-44.7	-57.32	-70.48	-82.96	-92.76	-97.4	-94.9	-84.5	-67.17	-45.37	-22.19	-0.33	18.62	34.18	46.66	56.38	63.33	67.19	67.67	64.92	59.74	53.37	47.13	41.94	38.01	34.8	31.45	27.19	21.83	15.78	9.87	4.85	0.96	-2.23	-5.76	-10.87	-18.6	-29.33	-42.65	-57.28	-71.26	-82.22	-87.87	-86.57	-77.71	-62.03	-41.41	-18.4	4.41	25.04	42.35	55.99	66.07	72.74	76.08	76.06	72.84	66.97	59.48	51.62	44.54	38.86	34.57	31.17	27.95	24.33	19.99	14.93	9.29	3.28	-2.93	-9.25	-15.69
-45.37	-22.19	-0.33	18.62	34.18	46.66	56.38	63.33	67.19	67.67	64.92	59.74	53.37	47.13	41.94	38.01	34.8	31.45	27.19	21.83	15.78	9.87	4.85	0.96	-2.23	-5.76	-10.87	-18.6	-29.33	-42.65	-57.28	-71.26	-82.22	-87.87	-86.57	-77.71	-62.03	-41.41	-18.4	4.41	25.04	42.35	55.99	66.07	72.74	76.08	76.06	72.84	66.97	59.48	51.62	44.54	38.86	34.57	31.17	27.95	24.33	19.99	14.93	9.29	3.28	-2.93	-9.25	-15.69	-22.43	-29.82	-38.42	-48.75	-60.92	-74.28	-87.15	-97.09	-101.39	-98	-86.2	-66.93	-42.55	-16.09	9.42	31.72	49.47	62.29	70.41	74.51	75.44	74.05	71.08	66.99	62.1	56.55	50.48	44.13	37.78	31.78	26.39	21.73	17.66	13.9	10.09	5.97	1.42	-3.44	-8.49	-13.74	-19.36	-25.69	-33.09	-41.82	-52.03	-63.63	-76.12	-88.29	-98.14	-103.07	-100.65	-89.6	-70.48	-45.69	-18.66	7.26	29.93	48.61	63.5	75.02	83.23	87.82	88.59	85.94
-22.43	-29.82	-38.42	-48.75	-60.92	-74.28	-87.15	-97.09	-101.39	-98	-86.2	-66.93	-42.55	-16.09	9.42	31.72	49.47	62.29	70.41	74.51	75.44	74.05	71.08	66.99	62.1	56.55	50.48	44.13	37.78	31.78	26.39	21.73	17.66	13.9	10.09	5.97	1.42	-3.44	-8.49	-13.74	-19.36	-25.69	-33.09	-41.82	-52.03	-63.63	-76.12	-88.29	-98.14	-103.07	-100.65	-89.6	-70.48	-45.69	-18.66	7.26	29.93	48.61	63.5	75.02	83.23	87.82	88.59	85.94	81.06	75.53	70.79	67.64	66.09	65.6	65.48	65.2	64.55	63.49	61.97	59.86	56.92	52.84	47.39	40.44	31.96	22.2	11.71	1.26	-8.32	-16.42	-22.92	-28.33	-33.66	-40.13	-48.82	-60.25	-74.07	-88.81	-102	-110.57	-111.76	-104.09	-87.97	-65.64	-40.47	-15.74	6.22	24.36	38.65	49.49	57.24	62.08	64.24	64.17	62.54	60.11	57.46	54.83	52.22	49.47	46.47	43.24	39.96	36.96	34.61	33.15	32.56	32.32	31.51	29.03	24.07	16.47
81.06	75.53	70.79	67.64	66.09	65.6	65.48	65.2	64.55	63.49	61.97	59.86	56.92	52.84	47.39	40.44	31.96	22.2	11.71	1.26	-8.32	-16.42	-22.92	-28.33	-33.66	-40.13	-48.82	-60.25	-74.07	-88.81	-102	-110.57	-111.76	-104.09	-87.97	-65.64	-40.47	-15.74	6.22	24.36	38.65	49.49	57.24	62.08	64.24	64.17	62.54	60.11	57.46	54.83	52.22	49.47	46.47	43.24	39.96	36.96	34.61	33.15	32.56	32.32	31.51	29.03	24.07	16.47	6.86	-3.5	-13.3	-21.64	-28.34	-33.91	-39.3	-45.5	-53.33	-63.2	-74.91	-87.57	-99.49	-108.3	-111.51	-107.29	-95.08	-76.06	-52.76	-28.4	-5.75	13.47	28.83	40.75	49.83	56.4	60.37	61.56	60.06	56.46	51.76	47.07	43.17	40.43	38.74	37.72	36.92	35.95	34.62	32.89	30.86	28.66	26.32	23.7	20.4	16.05	10.47	3.86	-3.26	-10.25	-16.72	-22.61	-28.24	-34.09	-40.6	-48.06	-56.65	-66.43	-77.3	-88.63	-99.1	-106.77	-109.41	-105.26
6.86	-3.5	-13.3	-21.64	-28.34	-33.91	-39.3	-45.5	-53.33	-63.2	-74.91	-87.57	-99.49	-108.3	-111.51	-107.29	-95.08	-76.06	-52.76	-28.4	-5.75	13.47	28.83	40.75	49.83	56.4	60.37	61.56	60.06	56.46	51.76	47.07	43.17	40.43	38.74	37.72	36.92	35.95	34.62	32.89	30.86	28.66	26.32	23.7	20.4	16.05	10.47	3.86	-3.26	-10.25	-16.72	-22.61	-28.24	-34.09	-40.6	-48.06	-56.65	-66.43	-77.3	-88.63	-99.1	-106.77	-109.41	-105.26	-93.74	-75.83	-53.78	-30.41	-8.29	10.87	26.35	38.16	46.53	51.72	53.94	53.54	51.18	47.76	44.33	41.71	40.24	39.81	39.93	40.01	39.68	38.77	37.46	36	34.62	33.42	32.29	30.95	29.02	26.2	22.41	17.89	13.09	8.51	4.48	0.97	-2.43	-6.46	-11.83	-19.1	-28.24	-38.55	-48.56	-56.29	-59.68	-57.23	-48.49	-34.36	-16.79	1.76	19.11	33.79	45.27	53.59	59.03	61.78	61.96	59.84	56.01	51.37	46.85	43.03	39.98	37.25
-93.74	-75.83	-53.78	-30.41	-8.29	10.87	26.35	38.16	46.53	51.72	53.94	53.54	51.18	47.76	44.33	41.71	40.24	39.81	39.93	40.01	39.68	38.77	37.46	36	34.62	33.42	32.29	30.95	29.02	26.2	22.41	17.89	13.09	8.51	4.48	0.97	-2.43	-6.46	-11.83	-19.1	-28.24	-38.55	-48.56	-56.29	-59.68	-57.23	-48.49	-34.36	-16.79	1.76	19.11	33.79	45.27	53.59	59.03	61.78	61.96	59.84	56.01	51.37	46.85	43.03	39.98	37.25	34.23	30.52	26.14	21.49	17.18	13.58	10.81	8.6	6.59	4.34	1.55	-2.02	-6.45	-11.66	-17.4	-23.28	-28.89	-34.06	-38.9	-43.85	-49.49	-56.1	-63.34	-70.04	-74.48	-74.91	-70.24	-60.43	-46.54	-30.4	-13.99	1.04	13.67	23.43	30.26	34.26	35.65	34.71	31.91	27.84	23.15	18.38	13.96	10.08	6.88	4.41	2.64	1.49	0.76	0.16	-0.61	-1.79	-3.57	-5.98	-8.99	-12.45	-16.28	-20.47	-25.14	-30.62	-37.14	-44.8	-53.2	-61.47
34.23	30.52	26.14	21.49	17.18	13.58	10.81	8.6	6.59	4.34	1.55	-2.02	-6.45	-11.66	-17.4	-23.28	-28.89	-34.06	-38.9	-43.85	-49.49	-56.1	-63.34	-70.04	-74.48	-74.91	-70.24	-60.43	-46.54	-30.4	-13.99	1.04	13.67	23.43	30.26	34.26	35.65	34.71	31.91	27.84	23.15	18.38	13.96	10.08	6.88	4.41	2.64	1.49	0.76	0.16	-0.61	-1.79	-3.57	-5.98	-8.99	-12.45	-16.28	-20.47	-25.14	-30.62	-37.14	-44.8	-53.2	-61.47	-68.27	-72.19	-72.09	-67.45	-58.56	-46.4	-32.4	-18.05	-4.62	7.03	16.54	23.75	28.61	30.96	30.68	27.9	23.2	17.53	12.06	7.71	4.78	3.02	1.73	0.29	-1.64	-3.94	-6.26	-8.25	-9.8	-11.11	-12.5	-14.33	-16.8	-20.01	-24.1	-29.29	-35.79	-43.58	-52.07	-59.96	-65.42	-66.62	-62.43	-52.94	-39.38	-23.77	-8.22	5.71	17.23	26.21	32.79	37.12	39.21	39	36.58	32.39	27.11	21.63	16.7	12.81	10.01	7.99	6.23	4.26
-68.27	-72.19	-72.09	-67.45	-58.56	-46.4	-32.4	-18.05	-4.62	7.03	16.54	23.75	28.61	30.96	30.68	27.9	23.2	17.53	12.06	7.71	4.78	3.02	1.73	0.29	-1.64	-3.94	-6.26	-8.25	-9.8	-11.11	-12.5	-14.33	-16.8	-20.01	-24.1	-29.29	-35.79	-43.58	-52.07	-59.96	-65.42	-66.62	-62.43	-52.94	-39.38	-23.77	-8.22	5.71	17.23	26.21	32.79	37.12	39.21	39	36.58	32.39	27.11	21.63	16.7	12.81	10.01	7.99	6.23	4.26	1.86	-0.92	-3.8	-6.53	-9.07	-11.63	-14.62	-18.5	-23.62	-30.12	-37.93	-46.83	-56.26	-65.21	-72.28	-75.84	-74.59	-67.94	-56.45	-41.5	-24.95	-8.48	6.64	19.64	30.09	37.65	42.07	43.3	41.67	37.94	33.04	27.81	22.79	18.22	14.17	10.72	7.95	5.85	4.21	2.57	0.4	-2.7	-6.69	-11.2	-15.67	-19.72	-23.49	-27.61	-33.03	-40.48	-50.09	-61.03	-71.55	-79.37	-82.3	-78.95	-69.13	-54	-35.62	-16.36	1.7	17.19	29.44	38.39
1.86	-0.92	-3.8	-6.53	-9.07	-11.63	-14.62	-18.5	-23.62	-30.12	-37.93	-46.83	-56.26	-65.21	-72.28	-75.84	-74.59	-67.94	-56.45	-41.5	-24.95	-8.48	6.64	19.64	30.09	37.65	42.07	43.3	41.67	37.94	33.04	27.81	22.79	18.22	14.17	10.72	7.95	5.85	4.21	2.57	0.4	-2.7	-6.69	-11.2	-15.67	-19.72	-23.49	-27.61	-33.03	-40.48	-50.09	-61.03	-71.55	-79.37	-82.3	-78.95	-69.13	-54	-35.62	-16.36	1.7	17.19	29.44	38.39	44.32	47.74	49.13	48.99	47.72	45.61	42.9	39.8	36.56	33.4	30.56	28.03	25.65	23.18	20.31	16.93	13.03	8.74	4.2	-0.4	-5.04	-9.78	-14.78	-20.37	-26.92	-34.78	-44.05	-54.34	-64.55	-72.96	-77.48	-76.29	-68.48	-54.49	-36.13	-16.05	3.14	19.62	32.63	42.42	49.64	54.83	58.21	59.78	59.6	57.94	55.32	52.26	49.2	46.38	43.88	41.81	40.14	38.69	37.1	34.84	31.45	26.72	20.79	14.03	6.94	-0.06	-6.74	-13.15
44.32	47.74	49.13	48.99	47.72	45.61	42.9	39.8	36.56	33.4	30.56	28.03	25.65	23.18	20.31	16.93	13.03	8.74	4.2	-0.4	-5.04	-9.78	-14.78	-20.37	-26.92	-34.78	-44.05	-54.34	-64.55	-72.96	-77.48	-76.29	-68.48	-54.49	-36.13	-16.05	3.14	19.62	32.63	42.42	49.64	54.83	58.21	59.78	59.6	57.94	55.32	52.26	49.2	46.38	43.88	41.81	40.14	38.69	37.1	34.84	31.45	26.72	20.79	14.03	6.94	-0.06	-6.74	-13.15	-19.51	-26.26	-33.87	-42.67	-52.61	-62.98	-72.48	-79.37	-81.97	-79.03	-70.14	-55.85	-37.62	-17.51	2.29	19.9	34.18	44.68	51.54	55.18	56.02	54.38	50.7	45.65	40.08	34.87	30.63	27.53	25.34	23.69	22.3	20.99	19.7	18.27	16.47	13.96	10.44	5.77	0.08	-6.29	-12.88	-19.28	-25.47	-31.75	-38.66	-46.5	-54.91	-62.53	-67.27	-67	-60.43	-47.71	-30.49	-11.27	7.43	23.83	37.08	47.1	54.13	58.37	59.94	58.96	55.84	51.21
-19.51	-26.26	-33.87	-42.67	-52.61	-62.98	-72.48	-79.37	-81.97	-79.03	-70.14	-55.85	-37.62	-17.51	2.29	19.9	34.18	44.68	51.54	55.18	56.02	54.38	50.7	45.65	40.08	34.87	30.63	27.53	25.34	23.69	22.3	20.99	19.7	18.27	16.47	13.96	10.44	5.77	0.08	-6.29	-12.88	-19.28	-25.47	-31.75	-38.66	-46.5	-54.91	-62.53	-67.27	-67	-60.43	-47.71	-30.49	-11.27	7.43	23.83	37.08	47.1	54.13	58.37	59.94	58.96	55.84	51.21	45.85	40.39	35.14	30.21	25.68	21.73	18.7	16.77	15.75	15.07	13.93	11.69	8.2	3.82	-0.86	-5.5	-10.2	-15.54	-22.21	-30.66	-40.75	-51.74	-62.39	-71.09	-76.12	-76.01	-69.95	-58.25	-42.29	-24.24	-6.4	9.56	22.84	33.45	41.64	47.55	50.99	51.72	49.78	45.73	40.46	34.93	29.86	25.57	22.14	19.59	17.94	17.07	16.63	16.01	14.53	11.71	7.43	2	-4.13	-10.53	-16.96	-23.38	-29.91	-36.8	-44.27	-52.41	-60.97	-69.06
45.85	40.39	35.14	30.21	25.68	21.73	18.7	16.77	15.75	15.07	13.93	11.69	8.2	3.82	-0.86	-5.5	-10.2	-15.54	-22.21	-30.66	-40.75	-51.74	-62.39	-71.09	-76.12	-76.01	-69.95	-58.25	-42.29	-24.24	-6.4	9.56	22.84	33.45	41.64	47.55	50.99	51.72	49.78	45.73	40.46	34.93	29.86	25.57	22.14	19.59	17.94	17.07	16.63	16.01	14.53	11.71	7.43	2	-4.13	-10.53	-16.96	-23.38	-29.91	-36.8	-44.27	-52.41	-60.97	-69.06	-75.2	-77.54	-74.5	-65.33	-50.56	-31.85	-11.51	8.18	25.46	39.41	49.83	57.03	61.45	63.56	63.65	62.01	58.97	54.96	50.53	46.25	42.54	39.63	37.51	36	34.85	33.78	32.49	30.58	27.68	23.54	18.19	11.99	5.46	-0.9	-6.77	-12.18	-17.5	-23.34	-30.33	-38.75	-48.18	-57.24	-63.79	-65.54	-60.85	-49.46	-32.74	-13.25	6.21	23.46	37.53	48.52	57	63.44	67.81	69.8	69.18	66.18	61.52	56.15	50.86	46.03	41.65	37.54
-75.2	-77.54	-74.5	-65.33	-50.56	-31.85	-11.51	8.18	25.46	39.41	49.83	57.03	61.45	63.56	63.65	62.01	58.97	54.96	50.53	46.25	42.54	39.63	37.51	36	34.85	33.78	32.49	30.58	27.68	23.54	18.19	11.99	5.46	-0.9	-6.77	-12.18	-17.5	-23.34	-30.33	-38.75	-48.18	-57.24	-63.79	-65.54	-60.85	-49.46	-32.74	-13.25	6.21	23.46	37.53	48.52	57	63.44	67.81	69.8	69.18	66.18	61.52	56.15	50.86	46.03	41.65	37.54	33.52	29.59	25.75	22	18.17	13.99	9.31	4.06	-1.64	-7.58	-13.56	-19.36	-24.8	-29.85	-34.78	-40.33	-47.41	-56.65	-67.86	-79.6	-89.43	-94.68	-93.36	-84.89	-70.3	-51.76	-31.78	-12.53	4.54	18.68	29.64	37.41	42.14	44.2	44.17	42.87	41.1	39.39	37.95	36.62	35.15	33.27	30.94	28.27	25.39	22.37	19.16	15.58	11.42	6.54	0.93	-5.18	-11.43	-17.35	-22.58	-27.1	-31.27	-35.92	-42.05	-50.41	-60.97	-72.6	-83.2	-90.1
33.52	29.59	25.75	22	18.17	13.99	9.31	4.06	-1.64	-7.58	-13.56	-19.36	-24.8	-29.85	-34.78	-40.33	-47.41	-56.65	-67.86	-79.6	-89.43	-94.68	-93.36	-84.89	-70.3	-51.76	-31.78	-12.53	4.54	18.68	29.64	37.41	42.14	44.2	44.17	42.87	41.1	39.39	37.95	36.62	35.15	33.27	30.94	28.27	25.39	22.37	19.16	15.58	11.42	6.54	0.93	-5.18	-11.43	-17.35	-22.58	-27.1	-31.27	-35.92	-42.05	-50.41	-60.97	-72.6	-83.2	-90.1	-91.01	-84.76	-71.81	-54.08	-34.28	-14.95	2.28	16.88	29.11	39.33	47.63	53.61	56.85	57.27	55.46	52.59	50	48.62	48.57	49.25	49.69	49.11	47.24	44.37	41.08	37.77	34.47	30.8	26.26	20.57	13.81	6.43	-0.92	-7.75	-13.82	-19.31	-24.73	-30.64	-37.5	-45.52	-54.57	-64.13	-73.3	-80.86	-85.37	-85.45	-80.19	-69.57	-54.51	-36.73	-18.27	-0.86	14.4	27.06	37	44.27	48.9	50.93	50.71	48.73	45.69	42.2	38.73	35.49
-91.01	-84.76	-71.81	-54.08	-34.28	-14.95	2.28	16.88	29.11	39.33	47.63	53.61	56.85	57.27	55.46	52.59	50	48.62	48.57	49.25	49.69	49.11	47.24	44.37	41.08	37.77	34.47	30.8	26.26	20.57	13.81	6.43	-0.92	-7.75	-13.82	-19.31	-24.73	-30.64	-37.5	-45.52	-54.57	-64.13	-73.3	-80.86	-85.37	-85.45	-80.19	-69.57	-54.51	-36.73	-18.27	-0.86	14.4	27.06	37	44.27	48.9	50.93	50.71	48.73	45.69	42.2	38.73	35.49	32.57	29.95	27.6	25.47	23.49	21.58	19.63	17.47	14.8	11.39	7.12	2.18	-2.96	-7.73	-11.76	-15.1	-18.17	-21.62	-26.02	-31.81	-39.2	-48.23	-58.63	-69.5	-79.17	-85.34	-85.71	-78.82	-64.83	-45.6	-24.14	-3.46	14.3	28.44	39.32	47.8	54.45	59.33	62.14	62.68	61.16	58.29	54.95	51.81	49.11	46.61	43.89	40.67	37.06	33.48	30.54	28.55	27.35	26.27	24.29	20.62	15.12	8.5	1.81	-3.99	-8.64	-12.73	-17.35	-23.49
32.57	29.95	27.6	25.47	23.49	21.58	19.63	17.47	14.8	11.39	7.12	2.18	-2.96	-7.73	-11.76	-15.1	-18.17	-21.62	-26.02	-31.81	-39.2	-48.23	-58.63	-69.5	-79.17	-85.34	-85.71	-78.82	-64.83	-45.6	-24.14	-3.46	14.3	28.44	39.32	47.8	54.45	59.33	62.14	62.68	61.16	58.29	54.95	51.81	49.11	46.61	43.89	40.67	37.06	33.48	30.54	28.55	27.35	26.27	24.29	20.62	15.12	8.5	1.81	-3.99	-8.64	-12.73	-17.35	-23.49	-31.54	-41.25	-51.91	-62.72	-72.87	-81.49	-87.39	-89.11	-85.38	-75.74	-60.93	-42.84	-23.9	-6.36	8.28	19.48	27.41	32.58	35.49	36.6	36.29	35.02	33.28	31.57	30.13	29.05	28.09	26.94	25.28	22.99	20.26	17.57	15.46	14.19	13.6	13.05	11.78	9.27	5.49	0.88	-3.95	-8.63	-13.25	-18.19	-23.97	-30.97	-39.23	-48.4	-57.66	-65.69	-70.86	-71.59	-66.87	-56.68	-42.17	-25.29	-8.16	7.53	20.81	31.37	39.16	44.2	46.48	46.13
-31.54	-41.25	-51.91	-62.72	-72.87	-81.49	-87.39	-89.11	-85.38	-75.74	-60.93	-42.84	-23.9	-6.36	8.28	19.48	27.41	32.58	35.49	36.6	36.29	35.02	33.28	31.57	30.13	29.05	28.09	26.94	25.28	22.99	20.26	17.57	15.46	14.19	13.6	13.05	11.78	9.27	5.49	0.88	-3.95	-8.63	-13.25	-18.19	-23.97	-30.97	-39.23	-48.4	-57.66	-65.69	-70.86	-71.59	-66.87	-56.68	-42.17	-25.29	-8.16	7.53	20.81	31.37	39.16	44.2	46.48	46.13	43.72	40.17	36.46	33.3	30.83	28.74	26.61	24.24	21.79	19.67	18.15	17.22	16.47	15.36	13.41	10.38	6.28	1.33	-4.1	-9.56	-14.57	-18.87	-22.59	-26.41	-31.36	-38.38	-47.76	-58.64	-69.17	-76.83	-79.31	-75.26	-64.8	-49.38	-31.37	-13.23	3.17	16.8	27.44	35.26	40.57	43.6	44.7	44.32	43.01	41.31	39.44	37.34	34.79	31.66	28.13	24.65	21.8	19.93	19.05	18.78	18.56	17.76	15.86	12.56	7.91	2.29	-3.68	-9.26
43.72	40.17	36.46	33.3	30.83	28.74	26.61	24.24	21.79	19.67	18.15	17.22	16.47	15.36	13.41	10.38	6.28	1.33	-4.1	-9.56	-14.57	-18.87	-22.59	-26.41	-31.36	-38.38	-47.76	-58.64	-69.17	-76.83	-79.31	-75.26	-64.8	-49.38	-31.37	-13.23	3.17	16.8	27.44	35.26	40.57	43.6	44.7	44.32	43.01	41.31	39.44	37.34	34.79	31.66	28.13	24.65	21.8	19.93	19.05	18.78	18.56	17.76	15.86	12.56	7.91	2.29	-3.68	-9.26	-14.01	-17.9	-21.52	-25.86	-31.89	-40.13	-50.25	-61.04	-70.6	-76.89	-78.21	-73.82	-63.98	-49.84	-33.09	-15.41	1.69	17.1	29.92	39.57	45.76	48.66	48.96	47.63	45.63	43.58	41.61	39.5	37.01	34.08	30.92	27.87	25.17	22.94	21.08	19.4	17.69	15.65	12.94	9.37	4.97	0.13	-4.54	-8.66	-12.25	-15.87	-20.31	-26.23	-33.88	-42.91	-52.44	-61.11	-67.26	-69.23	-65.77	-56.5	-42.31	-25.14	-7.46	8.56	21.59	31.22	37.65	41.19
-14.01	-17.9	-21.52	-25.86	-31.89	-40.13	-50.25	-61.04	-70.6	-76.89	-78.21	-73.82	-63.98	-49.84	-33.09	-15.41	1.69	17.1	29.92	39.57	45.76	48.66	48.96	47.63	45.63	43.58	41.61	39.5	37.01	34.08	30.92	27.87	25.17	22.94	21.08	19.4	17.69	15.65	12.94	9.37	4.97	0.13	-4.54	-8.66	-12.25	-15.87	-20.31	-26.23	-33.88	-42.91	-52.44	-61.11	-67.26	-69.23	-65.77	-56.5	-42.31	-25.14	-7.46	8.56	21.59	31.22	37.65	41.19	42.07	40.55	37.19	32.76	28.28	24.5	21.68	19.59	17.71	15.64	13.3	10.96	8.97	7.51	6.54	5.64	4.38	2.36	-0.55	-4.21	-8.35	-12.71	-17.23	-22.15	-27.87	-34.73	-42.72	-51.24	-59.11	-64.76	-66.64	-63.7	-55.65	-43.14	-27.56	-10.71	5.57	19.73	30.73	38.11	42.05	43.19	42.51	40.99	39.3	37.67	35.9	33.61	30.59	26.94	23.14	19.79	17.26	15.49	14.02	12.22	9.67	6.38	2.75	-0.81	-4.01	-6.97	-10.19	-14.29
42.07	40.55	37.19	32.76	28.28	24.5	21.68	19.59	17.71	15.64	13.3	10.96	8.97	7.51	6.54	5.64	4.38	2.36	-0.55	-4.21	-8.35	-12.71	-17.23	-22.15	-27.87	-34.73	-42.72	-51.24	-59.11	-64.76	-66.64	-63.7	-55.65	-43.14	-27.56	-10.71	5.57	19.73	30.73	38.11	42.05	43.19	42.51	40.99	39.3	37.67	35.9	33.61	30.59	26.94	23.14	19.79	17.26	15.49	14.02	12.22	9.67	6.38	2.75	-0.81	-4.01	-6.97	-10.19	-14.29	-19.8	-26.87	-35.34	-44.65	-54.09	-62.77	-69.68	-73.64	-73.49	-68.41	-58.24	-43.82	-26.89	-9.62	5.91	18.39	27.45	33.5	37.32	39.64	40.84	41.1	40.38	38.74	36.25	33.11	29.54	25.86	22.46	19.61	17.43	15.69	13.93	11.68	8.67	5	0.98	-3.06	-6.98	-10.91	-15.13	-19.91	-25.41	-31.79	-39.24	-47.89	-57.52	-67.25	-75.4	-79.91	-78.91	-71.52	-58.3	-41.09	-22.36	-4.46	11.07	23.64	33.35	40.54	45.47	48.21	48.76	47.22
-19.8	-26.87	-35.34	-44.65	-54.09	-62.77	-69.68	-73.64	-73.49	-68.41	-58.24	-43.82	-26.89	-9.62	5.91	18.39	27.45	33.5	37.32	39.64	40.84	41.1	40.38	38.74	36.25	33.11	29.54	25.86	22.46	19.61	17.43	15.69	13.93	11.68	8.67	5	0.98	-3.06	-6.98	-10.91	-15.13	-19.91	-25.41	-31.79	-39.24	-47.89	-57.52	-67.25	-75.4	-79.91	-78.91	-71.52	-58.3	-41.09	-22.36	-4.46	11.07	23.64	33.35	40.54	45.47	48.21	48.76	47.22	43.96	39.59	34.84	30.37	26.65	23.89	22.09	21.06	20.55	20.25	19.8	18.83	16.95	13.89	9.46	3.71	-3.03	-10.14	-16.96	-23.11	-28.71	-34.39	-40.95	-48.96	-58.21	-67.58	-75.19	-78.92	-77.11	-69.17	-55.7	-38.41	-19.54	-1.28	14.74	27.7	37.53	44.57	49.33	52.21	53.5	53.46	52.49	51.01	49.41	47.91	46.58	45.32	44.05	42.78	41.62	40.81	40.5	40.65	40.96	40.84	39.68	36.96	32.59	26.92	20.72	14.9	10.06	6.31
43.96	39.59	34.84	30.37	26.65	23.89	22.09	21.06	20.55	20.25	19.8	18.83	16.95	13.89	9.46	3.71	-3.03	-10.14	-16.96	-23.11	-28.71	-34.39	-40.95	-48.96	-58.21	-67.58	-75.19	-78.92	-77.11	-69.17	-55.7	-38.41	-19.54	-1.28	14.74	27.7	37.53	44.57	49.33	52.21	53.5	53.46	52.49	51.01	49.41	47.91	46.58	45.32	44.05	42.78	41.62	40.81	40.5	40.65	40.96	40.84	39.68	36.96	32.59	26.92	20.72	14.9	10.06	6.31	3.06	-0.69	-5.86	-12.72	-20.51	-27.45	-31.24	-29.86	-22.4	-9.45	7.02	24.38	40.09	52.35	60.29	63.75	62.88	57.99	49.52	38.24	25.26	11.85	-0.82	-12.09	-21.79	-30.11	-37.2	-43.03	-47.37	-49.94	-50.73	-50.05	-48.46	-46.67	-45.21	-44.48	-44.64	-45.76	-47.77	-50.57	-53.97	-57.77	-61.87	-66.33	-71.34	-77.08	-83.5	-89.98	-95.3	-97.71	-95.48	-87.4	-73.34	-54.36	-32.38	-9.7	11.61	30.08	44.89	55.71	62.57	65.79	65.92	63.96
3.06	-0.69	-5.86	-12.72	-20.51	-27.45	-31.24	-29.86	-22.4	-9.45	7.02	24.38	40.09	52.35	60.29	63.75	62.88	57.99	49.52	38.24	25.26	11.85	-0.82	-12.09	-21.79	-30.11	-37.2	-43.03	-47.37	-49.94	-50.73	-50.05	-48.46	-46.67	-45.21	-44.48	-44.64	-45.76	-47.77	-50.57	-53.97	-57.77	-61.87	-66.33	-71.34	-77.08	-83.5	-89.98	-95.3	-97.71	-95.48	-87.4	-73.34	-54.36	-32.38	-9.7	11.61	30.08	44.89	55.71	62.57	65.79	65.92	63.96	61.07	58.36	56.59	55.97	56.22	56.88	57.56	58.11	58.57	58.92	58.9	57.95	55.49	51.16	45.03	37.66	29.75	21.9	14.23	6.49	-1.88	-11.34	-22.06	-33.71	-45.51	-56.27	-64.56	-68.96	-68.16	-61.48	-49.1	-32.27	-13.11	5.84	22.34	34.94	43.24	47.73	49.35	48.95	47.09	43.89	39.41	33.81	27.67	21.77	16.88	13.44	11.37	10.25	9.52	8.75	7.67	6.13	3.91	0.79	-3.34	-8.36	-13.84	-19.3	-24.42	-29.3	-34.45	-40.41
61.07	58.36	56.59	55.97	56.22	56.88	57.56	58.11	58.57	58.92	58.9	57.95	55.49	51.16	45.03	37.66	29.75	21.9	14.23	6.49	-1.88	-11.34	-22.06	-33.71	-45.51	-56.27	-64.56	-68.96	-68.16	-61.48	-49.1	-32.27	-13.11	5.84	22.34	34.94	43.24	47.73	49.35	48.95	47.09	43.89	39.41	33.81	27.67	21.77	16.88	13.44	11.37	10.25	9.52	8.75	7.67	6.13	3.91	0.79	-3.34	-8.36	-13.84	-19.3	-24.42	-29.3	-34.45	-40.41	-47.42	-54.97	-61.85	-66.37	-66.91	-62.44	-52.89	-39.19	-22.97	-6.08	9.91	23.95	35.54	44.4	50.26	52.82	51.9	47.83	41.55	34.53	28.35	24.14	22.31	22.38	23.33	24.03	23.63	21.84	18.88	15.27	11.53	8.02	4.79	1.68	-1.62	-5.41	-9.9	-15.27	-21.61	-28.94	-37	-44.95	-51.33	-54.25	-51.9	-43.26	-28.55	-9.34	11.87	32.37	49.87	62.98	71.22	74.73	74	69.63	62.26	52.73	42.07	31.53	22.3	15.21	10.49	7.61
-47.42	-54.97	-61.85	-66.37	-66.91	-62.44	-52.89	-39.19	-22.97	-6.08	9.91	23.95	35.54	44.4	50.26	52.82	51.9	47.83	41.55	34.53	28.35	24.14	22.31	22.38	23.33	24.03	23.63	21.84	18.88	15.27	11.53	8.02	4.79	1.68	-1.62	-5.41	-9.9	-15.27	-21.61	-28.94	-37	-44.95	-51.33	-54.25	-51.9	-43.26	-28.55	-9.34	11.87	32.37	49.87	62.98	71.22	74.73	74	69.63	62.26	52.73	42.07	31.53	22.3	15.21	10.49	7.61	5.55	3.16	-0.4	-5.33	-11.29	-17.68	-23.95	-29.9	-35.63	-41.36	-47.26	-53.4	-59.84	-66.78	-74.45	-82.77	-90.95	-97.37	-99.88	-96.6	-86.72	-70.91	-51.17	-30.08	-10	7.56	22	33.33	41.7	47.17	49.66	49.19	46.02	40.81	34.55	28.39	23.43	20.3	18.95	18.62	18.12	16.38	12.9	7.96	2.37	-2.97	-7.52	-11.37	-15.11	-19.53	-25.29	-32.68	-41.68	-51.91	-62.77	-73.23	-81.82	-86.74	-86.17	-78.89	-64.81	-45.16	-22.36	0.71
5.55	3.16	-0.4	-5.33	-11.29	-17.68	-23.95	-29.9	-35.63	-41.36	-47.26	-53.4	-59.84	-66.78	-74.45	-82.77	-90.95	-97.37	-99.88	-96.6	-86.72	-70.91	-51.17	-30.08	-10	7.56	22	33.33	41.7	47.17	49.66	49.19	46.02	40.81	34.55	28.39	23.43	20.3	18.95	18.62	18.12	16.38	12.9	7.96	2.37	-2.97	-7.52	-11.37	-15.11	-19.53	-25.29	-32.68	-41.68	-51.91	-62.77	-73.23	-81.82	-86.74	-86.17	-78.89	-64.81	-45.16	-22.36	0.71	21.5	38.43	51.07	59.85	65.55	68.86	70.16	69.63	67.48	64	59.71	55.12	50.74	46.89	43.7	41.15	39.01	36.93	34.58	31.63	27.9	23.42	18.29	12.66	6.68	0.39	-6.37	-13.93	-22.7	-33.09	-45.07	-57.83	-69.58	-77.86	-80.15	-74.89	-62.18	-43.84	-22.92	-2.48	15.26	29.38	40.03	47.8	53.09	56	56.38	54.26	50.06	44.61	38.92	33.87	30.05	27.61	26.26	25.39	24.34	22.57	19.91	16.44	12.46	8.15	3.5	-1.68
21.5	38.43	51.07	59.85	65.55	68.86	70.16	69.63	67.48	64	59.71	55.12	50.74	46.89	43.7	41.15	39.01	36.93	34.58	31.63	27.9	23.42	18.29	12.66	6.68	0.39	-6.37	-13.93	-22.7	-33.09	-45.07	-57.83	-69.58	-77.86	-80.15	-74.89	-62.18	-43.84	-22.92	-2.48	15.26	29.38	40.03	47.8	53.09	56	56.38	54.26	50.06	44.61	38.92	33.87	30.05	27.61	26.26	25.39	24.34	22.57	19.91	16.44	12.46	8.15	3.5	-1.68	-7.63	-14.52	-22.44	-31.43	-41.59	-52.74	-64.27	-74.75	-82.12	-84.18	-79.38	-67.53	-49.95	-29.07	-7.59	12.27	29.23	42.81	53.05	60.05	63.93	64.86	63.22	59.62	54.81	49.55	44.49	40.08	36.66	34.3	32.8	31.61	29.97	27.11	22.67	16.77	9.93	2.81	-4.16	-10.87	-17.44	-24.09	-31.08	-38.69	-47.31	-57.19	-68.16	-79.21	-88.38	-93.21	-91.44	-81.96	-65.28	-43.45	-19.37	4.15	25.07	42.36	55.84	65.76	72.42	76.16	77.26	76.22
-7.63	-14.52	-22.44	-31.43	-41.59	-52.74	-64.27	-74.75	-82.12	-84.18	-79.38	-67.53	-49.95	-29.07	-7.59	12.27	29.23	42.81	53.05	60.05	63.93	64.86	63.22	59.62	54.81	49.55	44.49	40.08	36.66	34.3	32.8	31.61	29.97	27.11	22.67	16.77	9.93	2.81	-4.16	-10.87	-17.44	-24.09	-31.08	-38.69	-47.31	-57.19	-68.16	-79.21	-88.38	-93.21	-91.44	-81.96	-65.28	-43.45	-19.37	4.15	25.07	42.36	55.84	65.76	72.42	76.16	77.26	76.22	73.7	70.51	67.39	64.81	62.84	61.22	59.6	57.62	55.21	52.37	49.16	45.47	41.09	35.84	29.61	22.56	14.97	7.13	-0.95	-9.51	-19.06	-30.13	-43.11	-57.99	-74.24	-90.58	-104.96	-114.92	-118.13	-113.11	-99.96	-80.36	-57.1	-33.15	-10.72	9.07	26.01	40.22	51.59	59.84	64.7	66.38	65.75	64.05	62.4	61.34	60.76	60.12	58.89	56.93	54.52	52.23	50.59	49.78	49.59	49.5	48.82	47.01	43.92	39.8	35.34	31.32	28.41	26.72
73.7	70.51	67.39	64.81	62.84	61.22	59.6	57.62	55.21	52.37	49.16	45.47	41.09	35.84	29.61	22.56	14.97	7.13	-0.95	-9.51	-19.06	-30.13	-43.11	-57.99	-74.24	-90.58	-104.96	-114.92	-118.13	-113.11	-99.96	-80.36	-57.1	-33.15	-10.72	9.07	26.01	40.22	51.59	59.84	64.7	66.38	65.75	64.05	62.4	61.34	60.76	60.12	58.89	56.93	54.52	52.23	50.59	49.78	49.59	49.5	48.82	47.01	43.92	39.8	35.34	31.32	28.41	26.72	25.68	24.12	20.53	13.58	2.56	-12.13	-28.9	-45.24	-58.35	-65.97	-67.05	-62.07	-52.79	-41.61	-30.8	-21.81	-15.08	-10.28	-6.83	-4.27	-2.57	-1.88	-2.25	-3.35	-4.49	-4.9	-4.08	-2.07	0.61	3.23	5.29	6.75	7.95	9.33	11.06	12.93	14.34	14.57	13.09	9.73	4.74	-1.35	-7.84	-14.11	-19.75	-24.68	-29.24	-34.09	-39.98	-47.56	-57	-67.71	-78.21	-86.31	-89.68	-86.58	-76.4	-60.06	-39.69	-18	2.52	20.25	34.6	45.71
25.68	24.12	20.53	13.58	2.56	-12.13	-28.9	-45.24	-58.35	-65.97	-67.05	-62.07	-52.79	-41.61	-30.8	-21.81	-15.08	-10.28	-6.83	-4.27	-2.57	-1.88	-2.25	-3.35	-4.49	-4.9	-4.08	-2.07	0.61	3.23	5.29	6.75	7.95	9.33	11.06	12.93	14.34	14.57	13.09	9.73	4.74	-1.35	-7.84	-14.11	-19.75	-24.68	-29.24	-34.09	-39.98	-47.56	-57	-67.71	-78.21	-86.31	-89.68	-86.58	-76.4	-60.06	-39.69	-18	2.52	20.25	34.6	45.71	54.01	59.72	62.74	62.89	60.31	55.7	50.34	45.54	42.27	40.66	40.1	39.6	38.36	36.2	33.53	31	29.06	27.62	26.04	23.49	19.33	13.45	6.34	-1.19	-8.28	-14.44	-19.6	-24.05	-28.31	-32.94	-38.46	-45.24	-53.43	-62.64	-71.75	-78.91	-81.97	-79.13	-69.72	-54.51	-35.5	-15.25	3.9	20.38	33.44	42.99	49.21	52.38	52.78	50.9	47.46	43.3	39.22	35.66	32.72	30.2	27.91	25.83	24.15	23	22.31	21.59	20.11	17.3
54.01	59.72	62.74	62.89	60.31	55.7	50.34	45.54	42.27	40.66	40.1	39.6	38.36	36.2	33.53	31	29.06	27.62	26.04	23.49	19.33	13.45	6.34	-1.19	-8.28	-14.44	-19.6	-24.05	-28.31	-32.94	-38.46	-45.24	-53.43	-62.64	-71.75	-78.91	-81.97	-79.13	-69.72	-54.51	-35.5	-15.25	3.9	20.38	33.44	42.99	49.21	52.38	52.78	50.9	47.46	43.3	39.22	35.66	32.72	30.2	27.91	25.83	24.15	23	22.31	21.59	20.11	17.3	12.91	7.28	1.04	-5.14	-10.86	-16.08	-20.99	-25.87	-30.99	-36.65	-43.01	-50.11	-57.51	-64.14	-68.48	-68.93	-64.43	-54.95	-41.55	-26.1	-10.64	3.23	14.76	23.89	31	36.42	40.07	41.55	40.52	36.97	31.51	25.23	19.33	14.74	11.8	10.29	9.65	9.22	8.48	7.09	4.88	1.81	-1.89	-5.96	-10.08	-14.03	-17.8	-21.53	-25.46	-29.86	-35.05	-41.24	-48.46	-56.23	-63.33	-67.91	-67.95	-62.05	-50.12	-33.63	-15.13	2.49	17.02	27.43
12.91	7.28	1.04	-5.14	-10.86	-16.08	-20.99	-25.87	-30.99	-36.65	-43.01	-50.11	-57.51	-64.14	-68.48	-68.93	-64.43	-54.95	-41.55	-26.1	-10.64	3.23	14.76	23.89	31	36.42	40.07	41.55	40.52	36.97	31.51	25.23	19.33	14.74	11.8	10.29	9.65	9.22	8.48	7.09	4.88	1.81	-1.89	-5.96	-10.08	-14.03	-17.8	-21.53	-25.46	-29.86	-35.05	-41.24	-48.46	-56.23	-63.33	-67.91	-67.95	-62.05	-50.12	-33.63	-15.13	2.49	17.02	27.43	33.93	37.44	38.96	39.16	38.19	36	32.59	28.31	23.84	19.91	16.99	15.09	13.8	12.48	10.6	7.96	4.7	1.07	-2.75	-6.61	-10.47	-14.23	-17.81	-21.18	-24.6	-28.54	-33.7	-40.69	-49.6	-59.82	-69.85	-77.66	-81.09	-78.54	-69.47	-54.62	-35.94	-15.93	2.92	18.72	30.56	38.38	42.78	44.63	44.74	43.76	42.03	39.65	36.59	32.77	28.29	23.5	18.97	15.28	12.69	11.16	10.14	8.89	6.72	3.17	-1.72	-7.56	-13.68	-19.52
33.93	37.44	38.96	39.16	38.19	36	32.59	28.31	23.84	19.91	16.99	15.09	13.8	12.48	10.6	7.96	4.7	1.07	-2.75	-6.61	-10.47	-14.23	-17.81	-21.18	-24.6	-28.54	-33.7	-40.69	-49.6	-59.82	-69.85	-77.66	-81.09	-78.54	-69.47	-54.62	-35.94	-15.93	2.92	18.72	30.56	38.38	42.78	44.63	44.74	43.76	42.03	39.65	36.59	32.77	28.29	23.5	18.97	15.28	12.69	11.16	10.14	8.89	6.72	3.17	-1.72	-7.56	-13.68	-19.52	-24.7	-29.21	-33.4	-37.87	-43.29	-50.04	-57.86	-65.71	-71.76	-73.91	-70.5	-60.92	-46.04	-27.95	-9.28	7.56	21.06	30.74	36.87	40.01	40.7	39.4	36.55	32.69	28.34	23.91	19.63	15.65	12.12	9.15	6.82	4.95	3.11	0.89	-1.92	-5.1	-8.13	-10.55	-12.16	-13.26	-14.41	-16.24	-19.21	-23.61	-29.52	-36.86	-45.18	-53.49	-60.17	-63.25	-60.98	-52.47	-38.17	-19.87	-0.32	17.66	31.98	41.79	47.46	50.1	50.93	50.66	49.47	47.18
-24.7	-29.21	-33.4	-37.87	-43.29	-50.04	-57.86	-65.71	-71.76	-73.91	-70.5	-60.92	-46.04	-27.95	-9.28	7.56	21.06	30.74	36.87	40.01	40.7	39.4	36.55	32.69	28.34	23.91	19.63	15.65	12.12	9.15	6.82	4.95	3.11	0.89	-1.92	-5.1	-8.13	-10.55	-12.16	-13.26	-14.41	-16.24	-19.21	-23.61	-29.52	-36.86	-45.18	-53.49	-60.17	-63.25	-60.98	-52.47	-38.17	-19.87	-0.32	17.66	31.98	41.79	47.46	50.1	50.93	50.66	49.47	47.18	43.66	39.08	33.95	28.94	24.53	20.95	18.08	15.63	13.32	10.98	8.59	6.11	3.47	0.46	-3.2	-7.67	-12.88	-18.57	-24.54	-30.87	-38.02	-46.51	-56.44	-66.88	-75.93	-81.05	-80.12	-72.19	-57.97	-39.57	-19.69	-0.82	15.39	28.18	37.54	43.82	47.49	49.02	48.87	47.51	45.32	42.52	39.19	35.36	31.19	27.01	23.31	20.47	18.57	17.24	15.77	13.42	9.71	4.7	-1.14	-7.13	-12.74	-17.87	-22.87	-28.32	-34.82	-42.73	-52.04	-62.2
43.66	39.08	33.95	28.94	24.53	20.95	18.08	15.63	13.32	10.98	8.59	6.11	3.47	0.46	-3.2	-7.67	-12.88	-18.57	-24.54	-30.87	-38.02	-46.51	-56.44	-66.88	-75.93	-81.05	-80.12	-72.19	-57.97	-39.57	-19.69	-0.82	15.39	28.18	37.54	43.82	47.49	49.02	48.87	47.51	45.32	42.52	39.19	35.36	31.19	27.01	23.31	20.47	18.57	17.24	15.77	13.42	9.71	4.7	-1.14	-7.13	-12.74	-17.87	-22.87	-28.32	-34.82	-42.73	-52.04	-62.2	-72.06	-79.94	-83.92	-82.3	-74.23	-60.06	-41.44	-20.86	-0.92	16.37	30.01	39.99	46.89	51.33	53.73	54.26	53.02	50.31	46.63	42.59	38.71	35.27	32.31	29.78	27.65	25.92	24.58	23.43	22.08	20.06	16.96	12.67	7.36	1.35	-4.97	-11.31	-17.56	-23.76	-30.27	-37.58	-46.2	-56.2	-66.79	-76.29	-82.32	-82.62	-75.92	-62.52	-44.32	-24.1	-4.59	12.38	26.18	37.03	45.4	51.57	55.43	56.79	55.75	52.81	48.85	44.7	40.96	37.78
-72.06	-79.94	-83.92	-82.3	-74.23	-60.06	-41.44	-20.86	-0.92	16.37	30.01	39.99	46.89	51.33	53.73	54.26	53.02	50.31	46.63	42.59	38.71	35.27	32.31	29.78	27.65	25.92	24.58	23.43	22.08	20.06	16.96	12.67	7.36	1.35	-4.97	-11.31	-17.56	-23.76	-30.27	-37.58	-46.2	-56.2	-66.79	-76.29	-82.32	-82.62	-75.92	-62.52	-44.32	-24.1	-4.59	12.38	26.18	37.03	45.4	51.57	55.43	56.79	55.75	52.81	48.85	44.7	40.96	37.78	35.03	32.52	30.16	27.97	25.97	24.17	22.34	20.18	17.22	13.09	7.59	0.92	-6.27	-13.18	-19.13	-23.99	-28.38	-33.44	-40.31	-49.45	-60.18	-70.61	-78.19	-80.48	-76.05	-64.86	-48.3	-28.56	-8.11	11.07	27.64	40.97	50.87	57.39	60.75	61.37	59.84	56.99	53.59	50.21	47.09	44.11	40.96	37.45	33.78	30.4	27.9	26.55	26.06	25.59	24.08	20.77	15.55	8.96	1.85	-4.96	-11.09	-16.68	-22.16	-28.17	-35.33	-44.11	-54.56	-66.01
35.03	32.52	30.16	27.97	25.97	24.17	22.34	20.18	17.22	13.09	7.59	0.92	-6.27	-13.18	-19.13	-23.99	-28.38	-33.44	-40.31	-49.45	-60.18	-70.61	-78.19	-80.48	-76.05	-64.86	-48.3	-28.56	-8.11	11.07	27.64	40.97	50.87	57.39	60.75	61.37	59.84	56.99	53.59	50.21	47.09	44.11	40.96	37.45	33.78	30.4	27.9	26.55	26.06	25.59	24.08	20.77	15.55	8.96	1.85	-4.96	-11.09	-16.68	-22.16	-28.17	-35.33	-44.11	-54.56	-66.01	-76.84	-84.75	-87.37	-83.08	-71.72	-54.73	-34.65	-14.27	4.23	19.7	31.95	41.28	48.13	52.8	55.45	56.26	55.48	53.39	50.32	46.65	42.78	39.18	36.2	33.99	32.41	31.14	29.79	28.13	26.05	23.45	20.12	15.72	10.03	3.16	-4.34	-11.74	-18.41	-24.15	-29.37	-34.9	-41.64	-50.13	-60.16	-70.62	-79.56	-84.64	-83.77	-75.81	-61.07	-41.38	-19.55	1.53	19.64	33.82	44.17	51.37	56.1	58.77	59.49	58.37	55.73	52.13	48.23	44.51
-76.84	-84.75	-87.37	-83.08	-71.72	-54.73	-34.65	-14.27	4.23	19.7	31.95	41.28	48.13	52.8	55.45	56.26	55.48	53.39	50.32	46.65	42.78	39.18	36.2	33.99	32.41	31.14	29.79	28.13	26.05	23.45	20.12	15.72	10.03	3.16	-4.34	-11.74	-18.41	-24.15	-29.37	-34.9	-41.64	-50.13	-60.16	-70.62	-79.56	-84.64	-83.77	-75.81	-61.07	-41.38	-19.55	1.53	19.64	33.82	44.17	51.37	56.1	58.77	59.49	58.37	55.73	52.13	48.23	44.51	41.11	37.86	34.6	31.31	28.2	25.56	23.49	21.71	19.67	16.72	12.43	6.83	0.4	-6.16	-12.19	-17.43	-22.08	-26.71	-32.04	-38.72	-47.13	-57.13	-67.97	-78.11	-85.55	-88.11	-84.2	-73.35	-56.55	-36.08	-14.87	4.39	19.97	31.35	39.16	44.44	48.08	50.51	51.68	51.45	49.87	47.36	44.51	41.81	39.43	37.24	35.01	32.6	30.19	28.05	26.32	24.84	23.15	20.65	16.89	11.81	5.63	-1.09	-7.79	-13.95	-19.36	-24.14	-28.82	-34.19
41.11	37.86	34.6	31.31	28.2	25.56	23.49	21.71	19.67	16.72	12.43	6.83	0.4	-6.16	-12.19	-17.43	-22.08	-26.71	-32.04	-38.72	-47.13	-57.13	-67.97	-78.11	-85.55	-88.11	-84.2	-73.35	-56.55	-36.08	-14.87	4.39	19.97	31.35	39.16	44.44	48.08	50.51	51.68	51.45	49.87	47.36	44.51	41.81	39.43	37.24	35.01	32.6	30.19	28.05	26.32	24.84	23.15	20.65	16.89	11.81	5.63	-1.09	-7.79	-13.95	-19.36	-24.14	-28.82	-34.19	-41.07	-49.87	-60.13	-70.26	-77.88	-80.35	-75.88	-64.24	-46.93	-26.71	-6.58	11.1	25.27	35.96	43.85	49.56	53.36	55.13	54.76	52.42	48.73	44.61	40.96	38.28	36.57	35.36	34.04	32.27	30.04	27.64	25.31	23.01	20.36	16.83	11.99	5.83	-1.33	-8.86	-16.1	-22.6	-28.23	-33.18	-37.99	-43.43	-50.28	-58.9	-68.82	-78.48	-85.5	-87.38	-82.33	-70.05	-51.93	-30.6	-9.03	10.29	26.02	37.88	46.34	52.07	55.49	56.81	56.1	53.66
-41.07	-49.87	-60.13	-70.26	-77.88	-80.35	-75.88	-64.24	-46.93	-26.71	-6.58	11.1	25.27	35.96	43.85	49.56	53.36	55.13	54.76	52.42	48.73	44.61	40.96	38.28	36.57	35.36	34.04	32.27	30.04	27.64	25.31	23.01	20.36	16.83	11.99	5.83	-1.33	-8.86	-16.1	-22.6	-28.23	-33.18	-37.99	-43.43	-50.28	-58.9	-68.82	-78.48	-85.5	-87.38	-82.33	-70.05	-51.93	-30.6	-9.03	10.29	26.02	37.88	46.34	52.07	55.49	56.81	56.1	53.66	50.08	46.17	42.68	39.97	37.9	36	33.86	31.38	28.89	26.82	25.36	24.13	22.32	19	13.66	6.55	-1.3	-8.62	-14.44	-18.62	-21.92	-25.7	-31.24	-39.18	-49.23	-60.21	-70.39	-77.88	-81.06	-78.73	-70.51	-56.87	-39.25	-19.78	-0.78	15.78	28.87	38.38	44.79	48.73	50.72	51	49.85	47.58	44.57	41.14	37.42	33.45	29.3	25.26	21.76	19.13	17.31	15.83	14	11.33	7.73	3.56	-0.74	-4.96	-9.21	-13.77	-18.73	-23.87
50.08	46.17	42.68	39.97	37.9	36	33.86	31.38	28.89	26.82	25.36	24.13	22.32	19	13.66	6.55	-1.3	-8.62	-14.44	-18.62	-21.92	-25.7	-31.24	-39.18	-49.23	-60.21	-70.39	-77.88	-81.06	-78.73	-70.51	-56.87	-39.25	-19.78	-0.78	15.78	28.87	38.38	44.79	48.73	50.72	51	49.85	47.58	44.57	41.14	37.42	33.45	29.3	25.26	21.76	19.13	17.31	15.83	14	11.33	7.73	3.56	-0.74	-4.96	-9.21	-13.77	-18.73	-23.87	-28.91	-33.85	-39.22	-45.91	-54.48	-64.43	-73.95	-80.21	-80.52	-73.41	-59.33	-40.51	-20.08	-0.98	14.95	27.07	35.79	41.85	45.94	48.37	49.16	48.4	46.32	43.39	40.09	36.77	33.46	30.06	26.52	23.03	20.07	18.04	17.02	16.5	15.64	13.54	9.68	4.2	-2.23	-8.64	-14.27	-18.77	-22.39	-25.8	-30.03	-36.07	-44.37	-54.54	-65.05	-73.54	-77.39	-74.68	-64.93	-49.29	-30.23	-10.65	6.96	21.15	31.58	38.73	43.37	46.18	47.63	47.92
-28.91	-33.85	-39.22	-45.91	-54.48	-64.43	-73.95	-80.21	-80.52	-73.41	-59.33	-40.51	-20.08	-0.98	14.95	27.07	35.79	41.85	45.94	48.37	49.16	48.4	46.32	43.39	40.09	36.77	33.46	30.06	26.52	23.03	20.07	18.04	17.02	16.5	15.64	13.54	9.68	4.2	-2.23	-8.64	-14.27	-18.77	-22.39	-25.8	-30.03	-36.07	-44.37	-54.54	-65.05	-73.54	-77.39	-74.68	-64.93	-49.29	-30.23	-10.65	6.96	21.15	31.58	38.73	43.37	46.18	47.63	47.92	47.18	45.52	43.08	40	36.38	32.34	28.02	23.71	19.74	16.52	14.21	12.8	11.9	10.93	9.34	6.66	2.78	-2.16	-7.81	-13.88	-20.13	-26.55	-33.28	-40.56	-48.65	-57.64	-67.09	-75.9	-82.32	-84.33	-80.28	-69.58	-53.03	-32.72	-11.36	8.47	24.97	37.34	45.68	50.6	52.84	53.05	51.72	49.21	45.81	41.75	37.32	32.79	28.44	24.45	21.01	18.18	16.04	14.63	13.83	13.34	12.55	10.86	7.79	3.33	-2.19	-8.14	-14.07	-19.9
47.18	45.52	43.08	40	36.38	32.34	28.02	23.71	19.74	16.52	14.21	12.8	11.9	10.93	9.34	6.66	2.78	-2.16	-7.81	-13.88	-20.13	-26.55	-33.28	-40.56	-48.65	-57.64	-67.09	-75.9	-82.32	-84.33	-80.28	-69.58	-53.03	-32.72	-11.36	8.47	24.97	37.34	45.68	50.6	52.84	53.05	51.72	49.21	45.81	41.75	37.32	32.79	28.44	24.45	21.01	18.18	16.04	14.63	13.83	13.34	12.55	10.86	7.79	3.33	-2.19	-8.14	-14.07	-19.9	-25.96	-32.83	-41.03	-50.56	-60.77	-70.28	-77.22	-79.62	-76.08	-66.18	-50.81	-32.02	-12.44	5.61	20.67	32.44	41.37	48.15	53.19	56.39	57.46	56.24	53	48.46	43.48	38.78	34.69	31.22	28.16	25.39	22.92	20.84	19.09	17.35	15.06	11.62	6.74	0.63	-6.07	-12.53	-18.14	-22.79	-27	-31.72	-37.94	-46.23	-56.35	-66.96	-75.83	-80.34	-78.33	-68.96	-53.03	-32.83	-11.31	8.83	25.8	38.89	48.09	53.67	55.95	55.4	52.66	48.66
-25.96	-32.83	-41.03	-50.56	-60.77	-70.28	-77.22	-79.62	-76.08	-66.18	-50.81	-32.02	-12.44	5.61	20.67	32.44	41.37	48.15	53.19	56.39	57.46	56.24	53	48.46	43.48	38.78	34.69	31.22	28.16	25.39	22.92	20.84	19.09	17.35	15.06	11.62	6.74	0.63	-6.07	-12.53	-18.14	-22.79	-27	-31.72	-37.94	-46.23	-56.35	-66.96	-75.83	-80.34	-78.33	-68.96	-53.03	-32.83	-11.31	8.83	25.8	38.89	48.09	53.67	55.95	55.4	52.66	48.66	44.3	40.27	36.8	33.72	30.72	27.67	24.68	21.96	19.73	18.01	16.49	14.67	12.09	8.46	3.85	-1.36	-6.66	-11.62	-16.13	-20.44	-25.08	-30.67	-37.62	-45.93	-54.98	-63.42	-69.41	-70.93	-66.48	-55.57	-39.15	-19.41	0.8	18.91	33.22	43.23	49.31	52.24	52.77	51.33	48.25	43.89	38.74	33.45	28.73	25.13	22.82	21.59	20.8	19.62	17.28	13.47	8.44	2.9	-2.35	-6.87	-10.78	-14.65	-19.23	-25.05	-32.21	-40.45	-49.29	-58.24
44.3	40.27	36.8	33.72	30.72	27.67	24.68	21.96	19.73	18.01	16.49	14.67	12.09	8.46	3.85	-1.36	-6.66	-11.62	-16.13	-20.44	-25.08	-30.67	-37.62	-45.93	-54.98	-63.42	-69.41	-70.93	-66.48	-55.57	-39.15	-19.41	0.8	18.91	33.22	43.23	49.31	52.24	52.77	51.33	48.25	43.89	38.74	33.45	28.73	25.13	22.82	21.59	20.8	19.62	17.28	13.47	8.44	2.9	-2.35	-6.87	-10.78	-14.65	-19.23	-25.05	-32.21	-40.45	-49.29	-58.24	-66.72	-73.9	-78.68	-79.7	-75.91	-66.92	-53.36	-36.8	-19.26	-2.63	11.75	23.25	31.75	37.34	40.18	40.41	38.3	34.38	29.48	24.56	20.42	17.55	15.94	15.17	14.49	13.25	11.08	7.97	4.4	0.93	-1.94	-4.23	-6.34	-9.01	-13.05	-18.96	-26.96	-36.82	-47.95	-59.23	-69.05	-75.47	-76.58	-71.14	-59.04	-41.66	-21.46	-1.4	16.01	29.31	38.37	43.97	47.13	48.63	48.73	47.32	44.26	39.7	34.22	28.62	23.65	19.74	16.88	14.57
-66.72	-73.9	-78.68	-79.7	-75.91	-66.92	-53.36	-36.8	-19.26	-2.63	11.75	23.25	31.75	37.34	40.18	40.41	38.3	34.38	29.48	24.56	20.42	17.55	15.94	15.17	14.49	13.25	11.08	7.97	4.4	0.93	-1.94	-4.23	-6.34	-9.01	-13.05	-18.96	-26.96	-36.82	-47.95	-59.23	-69.05	-75.47	-76.58	-71.14	-59.04	-41.66	-21.46	-1.4	16.01	29.31	38.37	43.97	47.13	48.63	48.73	47.32	44.26	39.7	34.22	28.62	23.65	19.74	16.88	14.57	12.16	9.15	5.39	1.17	-2.97	-6.58	-9.6	-12.44	-15.89	-20.7	-27.36	-35.92	-46.01	-56.86	-67.21	-75.32	-79.16	-76.92	-67.72	-52.18	-32.41	-11.43	7.89	23.73	35.63	44.07	49.83	53.37	54.65	53.49	50.04	45.01	39.49	34.53	30.68	27.74	25.05	21.8	17.54	12.39	6.87	1.76	-2.39	-5.48	-7.93	-10.48	-13.97	-18.94	-25.61	-33.91	-43.49	-53.71	-63.4	-70.8	-73.87	-70.81	-60.8	-44.55	-24.17	-2.45	18.12	36.07	51.03	63.24
12.16	9.15	5.39	1.17	-2.97	-6.58	-9.6	-12.44	-15.89	-20.7	-27.36	-35.92	-46.01	-56.86	-67.21	-75.32	-79.16	-76.92	-67.72	-52.18	-32.41	-11.43	7.89	23.73	35.63	44.07	49.83	53.37	54.65	53.49	50.04	45.01	39.49	34.53	30.68	27.74	25.05	21.8	17.54	12.39	6.87	1.76	-2.39	-5.48	-7.93	-10.48	-13.97	-18.94	-25.61	-33.91	-43.49	-53.71	-63.4	-70.8	-73.87	-70.81	-60.8	-44.55	-24.17	-2.45	18.12	36.07	51.03	63.24	72.82	79.47	82.61	81.95	77.95	71.89	65.38	59.85	55.89	53.3	51.3	49.03	45.82	41.48	36.12	30.11	23.91	18.01	12.68	7.86	3.03	-2.71	-10.41	-20.89	-34.32	-49.93	-65.96	-79.79	-88.51	-89.64	-81.9	-65.76	-43.26	-17.42	8.67	32.74	53.58	70.87	84.61	94.78	101.24	104.05	103.7	101.06	97.03	92.18	86.63	80.24	72.95	65.06	57.18	49.89	43.45	37.89	33.1	29.04	25.67	22.53	18.53	12.09	1.74	-13.19	-32.21	-53.83
72.82	79.47	82.61	81.95	77.95	71.89	65.38	59.85	55.89	53.3	51.3	49.03	45.82	41.48	36.12	30.11	23.91	18.01	12.68	7.86	3.03	-2.71	-10.41	-20.89	-34.32	-49.93	-65.96	-79.79	-88.51	-89.64	-81.9	-65.76	-43.26	-17.42	8.67	32.74	53.58	70.87	84.61	94.78	101.24	104.05	103.7	101.06	97.03	92.18	86.63	80.24	72.95	65.06	57.18	49.89	43.45	37.89	33.1	29.04	25.67	22.53	18.53	12.09	1.74	-13.19	-32.21	-53.83	-76.16	-97.52	-116.62	-132.39	-143.63	-149.02	-147.42	-138.42	-122.75	-102.24	-79.33	-56.38	-35.14	-16.47	-0.45	13.46	25.98	37.7	48.72	58.75	67.17	73.56	77.92	80.76	82.83	84.52	85.62	85.34	82.9	78.1	71.74	65.42	61	59.84	62.24	67.4	73.68	79.24	82.36	81.8	77.02	68.35	57.03	45.1	34.81	27.87	24.71	24.26	24.3	22.43	17.08	8.02	-3.66	-16.3	-28.47	-39.51	-49.57	-59.17	-68.8	-78.62	-88.33	-97.32	-104.94	-110.6
-76.16	-97.52	-116.62	-132.39	-143.63	-149.02	-147.42	-138.42	-122.75	-102.24	-79.33	-56.38	-35.14	-16.47	-0.45	13.46	25.98	37.7	48.72	58.75	67.17	73.56	77.92	80.76	82.83	84.52	85.62	85.34	82.9	78.1	71.74	65.42	61	59.84	62.24	67.4	73.68	79.24	82.36	81.8	77.02	68.35	57.03	45.1	34.81	27.87	24.71	24.26	24.3	22.43	17.08	8.02	-3.66	-16.3	-28.47	-39.51	-49.57	-59.17	-68.8	-78.62	-88.33	-97.32	-104.94	-110.6	-113.97	-115.05	-114.19	-112.03	-109.32	-106.74	-104.7	-103.29	-102.34	-101.67	-101.19	-100.96	-101.17	-102	-103.64	-106.29	-110.07	-115	-120.7	-126.11	-129.6	-129.06	-122.62	-109.33	-89.67	-65.52	-39.66	-14.89	6.81	24.61	38.61	49.49	57.9	64.22	68.65	71.31	72.5	72.74	72.67	72.78	73.13	73.34	72.61	70.2	65.67	59.21	51.62	43.99	37.35	32.26	28.66	25.94	23.2	19.5	14.01	6.15	-4.2	-16.56	-29.61	-41.46	-49.87	-53.02	-50.06	-41.37
-113.97	-115.05	-114.19	-112.03	-109.32	-106.74	-104.7	-103.29	-102.34	-101.67	-101.19	-100.96	-101.17	-102	-103.64	-106.29	-110.07	-115	-120.7	-126.11	-129.6	-129.06	-122.62	-109.33	-89.67	-65.52	-39.66	-14.89	6.81	24.61	38.61	49.49	57.9	64.22	68.65	71.31	72.5	72.74	72.67	72.78	73.13	73.34	72.61	70.2	65.67	59.21	51.62	43.99	37.35	32.26	28.66	25.94	23.2	19.5	14.01	6.15	-4.2	-16.56	-29.61	-41.46	-49.87	-53.02	-50.06	-41.37	-28.45	-13.34	2.04	16.33	28.85	39.39	47.91	54.3	58.31	59.75	58.58	55.06	49.65	43.02	35.91	29.08	23.1	18.34	14.81	12.2	10.02	7.77	5.05	1.58	-2.97	-8.96	-16.74	-26.4	-37.8	-50.48	-63.94	-77.82	-91.78	-105.22	-116.85	-124.56	-125.9	-118.89	-103.07	-79.88	-52.38	-24.22	1.58	23.35	40.82	54.5	64.93	72.25	76.22	76.65	73.82	68.59	62.21	55.9	50.44	46.08	42.47	39.06	35.25	30.74	25.56	20.06	14.74	9.97
-28.45	-13.34	2.04	16.33	28.85	39.39	47.91	54.3	58.31	59.75	58.58	55.06	49.65	43.02	35.91	29.08	23.1	18.34	14.81	12.2	10.02	7.77	5.05	1.58	-2.97	-8.96	-16.74	-26.4	-37.8	-50.48	-63.94	-77.82	-91.78	-105.22	-116.85	-124.56	-125.9	-118.89	-103.07	-79.88	-52.38	-24.22	1.58	23.35	40.82	54.5	64.93	72.25	76.22	76.65	73.82	68.59	62.21	55.9	50.44	46.08	42.47	39.06	35.25	30.74	25.56	20.06	14.74	9.97	5.85	2.1	-1.71	-6.1	-11.47	-18.13	-26.35	-36.3	-47.83	-60.04	-71.07	-78.34	-79.3	-72.35	-57.66	-37.19	-14.06	8.48	27.97	43.22	54.18	61.46	65.91	68.27	69.05	68.51	66.66	63.47	58.93	53.4	47.49	42.01	37.56	34.29	31.86	29.69	27.18	23.98	19.99	15.2	9.64	3.29	-3.71	-11.13	-18.72	-26.39	-34.49	-43.68	-54.53	-66.92	-79.54	-89.92	-95.06	-92.6	-81.72	-63.6	-41.02	-17.37	4.41	22.59	36.6	46.64	53.13	56.43
5.85	2.1	-1.71	-6.1	-11.47	-18.13	-26.35	-36.3	-47.83	-60.04	-71.07	-78.34	-79.3	-72.35	-57.66	-37.19	-14.06	8.48	27.97	43.22	54.18	61.46	65.91	68.27	69.05	68.51	66.66	63.47	58.93	53.4	47.49	42.01	37.56	34.29	31.86	29.69	27.18	23.98	19.99	15.2	9.64	3.29	-3.71	-11.13	-18.72	-26.39	-34.49	-43.68	-54.53	-66.92	-79.54	-89.92	-95.06	-92.6	-81.72	-63.6	-41.02	-17.37	4.41	22.59	36.6	46.64	53.13	56.43	56.81	54.66	50.61	45.48	40.07	34.91	30.26	26.13	22.45	19.11	16.1	13.33	10.68	7.9	4.74	1	-3.36	-8.19	-13.25	-18.33	-23.31	-28.26	-33.42	-39.26	-46.27	-54.85	-64.91	-75.54	-84.89	-90.45	-89.85	-81.66	-66.01	-44.54	-19.93	5	27.98	47.59	63.27	74.95	82.85	87.24	88.45	87.02	83.61	79.03	74.03	69.09	64.33	59.54	54.38	48.66	42.51	36.41	31.02	26.7	23.35	20.34	16.85	12.2	6.28	-0.48	-7.33	-13.6
56.81	54.66	50.61	45.48	40.07	34.91	30.26	26.13	22.45	19.11	16.1	13.33	10.68	7.9	4.74	1	-3.36	-8.19	-13.25	-18.33	-23.31	-28.26	-33.42	-39.26	-46.27	-54.85	-64.91	-75.54	-84.89	-90.45	-89.85	-81.66	-66.01	-44.54	-19.93	5	27.98	47.59	63.27	74.95	82.85	87.24	88.45	87.02	83.61	79.03	74.03	69.09	64.33	59.54	54.38	48.66	42.51	36.41	31.02	26.7	23.35	20.34	16.85	12.2	6.28	-0.48	-7.33	-13.6	-19.12	-24.31	-30.2	-37.83	-47.78	-59.64	-71.8	-81.71	-86.67	-84.55	-74.67	-57.97	-36.75	-13.94	7.77	26.55	41.63	53	60.97	65.75	67.45	66.23	62.59	57.47	51.95	46.84	42.34	38.12	33.65	28.71	23.68	19.25	15.98	13.86	12.15	9.75	5.87	0.46	-5.9	-12.21	-17.83	-22.67	-27.21	-32.21	-38.4	-46.18	-55.43	-65.51	-75.15	-82.5	-85.52	-82.47	-72.61	-56.52	-36.15	-14.23	6.55	24.27	38.06	47.93	54.34	57.74	58.44	56.71
-19.12	-24.31	-30.2	-37.83	-47.78	-59.64	-71.8	-81.71	-86.67	-84.55	-74.67	-57.97	-36.75	-13.94	7.77	26.55	41.63	53	60.97	65.75	67.45	66.23	62.59	57.47	51.95	46.84	42.34	38.12	33.65	28.71	23.68	19.25	15.98	13.86	12.15	9.75	5.87	0.46	-5.9	-12.21	-17.83	-22.67	-27.21	-32.21	-38.4	-46.18	-55.43	-65.51	-75.15	-82.5	-85.52	-82.47	-72.61	-56.52	-36.15	-14.23	6.55	24.27	38.06	47.93	54.34	57.74	58.44	56.71	52.99	47.92	42.38	37.02	32.21	27.89	23.8	19.74	15.75	12.1	9.05	6.69	4.81	3	0.91	-1.65	-4.6	-7.89	-11.51	-15.6	-20.4	-26.13	-32.9	-40.67	-49.12	-57.44	-64.24	-67.7	-65.99	-58.04	-44.1	-25.83	-5.81	13.32	29.64	42.29	51.35	57.34	60.74	61.82	60.74	57.68	53.02	47.37	41.3	35.33	29.86	25.13	21.32	18.41	16.18	14.23	12.02	9.16	5.47	1.07	-3.73	-8.56	-13.23	-17.81	-22.53	-27.77	-33.91	-41.28
52.99	47.92	42.38	37.02	32.21	27.89	23.8	19.74	15.75	12.1	9.05	6.69	4.81	3	0.91	-1.65	-4.6	-7.89	-11.51	-15.6	-20.4	-26.13	-32.9	-40.67	-49.12	-57.44	-64.24	-67.7	-65.99	-58.04	-44.1	-25.83	-5.81	13.32	29.64	42.29	51.35	57.34	60.74	61.82	60.74	57.68	53.02	47.37	41.3	35.33	29.86	25.13	21.32	18.41	16.18	14.23	12.02	9.16	5.47	1.07	-3.73	-8.56	-13.23	-17.81	-22.53	-27.77	-33.91	-41.28	-49.91	-59.39	-68.52	-75.43	-77.92	-74.22	-63.73	-47.39	-27.51	-6.85	12.08	27.8	39.84	48.43	54.01	56.92	57.34	55.54	51.91	47.05	41.6	36.05	30.73	25.9	21.65	18.08	15.19	12.81	10.65	8.35	5.64	2.42	-1.19	-4.97	-8.72	-12.38	-16.12	-20.32	-25.45	-32.02	-40.38	-50.33	-60.98	-70.54	-76.66	-77.08	-70.4	-56.7	-37.73	-16.28	4.58	22.43	36	45.15	50.49	52.98	53.46	52.56	50.72	48.17	44.92	40.93	36.26	31.11
-49.91	-59.39	-68.52	-75.43	-77.92	-74.22	-63.73	-47.39	-27.51	-6.85	12.08	27.8	39.84	48.43	54.01	56.92	57.34	55.54	51.91	47.05	41.6	36.05	30.73	25.9	21.65	18.08	15.19	12.81	10.65	8.35	5.64	2.42	-1.19	-4.97	-8.72	-12.38	-16.12	-20.32	-25.45	-32.02	-40.38	-50.33	-60.98	-70.54	-76.66	-77.08	-70.4	-56.7	-37.73	-16.28	4.58	22.43	36	45.15	50.49	52.98	53.46	52.56	50.72	48.17	44.92	40.93	36.26	31.11	25.89	21.12	17.25	14.48	12.72	11.52	10.23	8.23	5.06	0.67	-4.71	-10.59	-16.46	-21.92	-26.91	-31.71	-36.96	-43.42	-51.55	-61.04	-70.57	-77.95	-80.59	-76.51	-65.03	-47.26	-25.76	-3.73	16.05	31.82	43.06	50.01	53.31	53.59	51.43	47.47	42.53	37.5	33.15	29.95	27.97	26.99	26.7	26.75	26.74	26.28	25.02	22.83	19.92	16.82	14.08	12.06	10.7	9.58	8.12	5.84	2.41	-2.27	-8.17	-14.88	-21.42	-26.2	-27.25	-22.98
25.89	21.12	17.25	14.48	12.72	11.52	10.23	8.23	5.06	0.67	-4.71	-10.59	-16.46	-21.92	-26.91	-31.71	-36.96	-43.42	-51.55	-61.04	-70.57	-77.95	-80.59	-76.51	-65.03	-47.26	-25.76	-3.73	16.05	31.82	43.06	50.01	53.31	53.59	51.43	47.47	42.53	37.5	33.15	29.95	27.97	26.99	26.7	26.75	26.74	26.28	25.02	22.83	19.92	16.82	14.08	12.06	10.7	9.58	8.12	5.84	2.41	-2.27	-8.17	-14.88	-21.42	-26.2	-27.25	-22.98	-12.74	2.61	20.98	39.58	55.82	67.88	75.08	77.56	75.96	70.9	62.95	52.6	40.33	26.72	12.37	-2.13	-16.29	-29.68	-41.89	-52.61	-61.53	-68.58	-73.81	-77.49	-80.03	-81.78	-83.1	-84.19	-85.2	-86.25	-87.48	-89.01	-90.96	-93.48	-96.66	-100.38	-104.11	-106.7	-106.49	-101.74	-91.22	-74.85	-53.97	-30.94	-8.52	11.01	26.43	37.76	45.75	51.31	54.91	56.45	55.52	51.82	45.58	37.74	29.69	22.81	18.05	15.53	14.66	14.43	13.81	12.22
-12.74	2.61	20.98	39.58	55.82	67.88	75.08	77.56	75.96	70.9	62.95	52.6	40.33	26.72	12.37	-2.13	-16.29	-29.68	-41.89	-52.61	-61.53	-68.58	-73.81	-77.49	-80.03	-81.78	-83.1	-84.19	-85.2	-86.25	-87.48	-89.01	-90.96	-93.48	-96.66	-100.38	-104.11	-106.7	-106.49	-101.74	-91.22	-74.85	-53.97	-30.94	-8.52	11.01	26.43	37.76	45.75	51.31	54.91	56.45	55.52	51.82	45.58	37.74	29.69	22.81	18.05	15.53	14.66	14.43	13.81	12.22	9.52	5.97	1.95	-2.2	-6.33	-10.47	-14.77	-19.59	-25.34	-32.43	-40.89	-50.24	-59.19	-65.82	-68.08	-64.35	-54.13	-38.3	-18.85	1.64	20.7	36.61	48.61	56.69	61.34	63.06	62.19	58.85	53.25	45.94	37.92	30.42	24.47	20.55	18.38	17.08	15.63	13.33	10.05	6.28	2.77	0.11	-1.58	-2.79	-4.43	-7.5	-12.71	-20.26	-29.83	-40.65	-51.58	-61.25	-68.18	-70.92	-68.36	-60.03	-46.38	-28.85	-9.55	9.18	25.45	38.12	46.96	52.4
9.52	5.97	1.95	-2.2	-6.33	-10.47	-14.77	-19.59	-25.34	-32.43	-40.89	-50.24	-59.19	-65.82	-68.08	-64.35	-54.13	-38.3	-18.85	1.64	20.7	36.61	48.61	56.69	61.34	63.06	62.19	58.85	53.25	45.94	37.92	30.42	24.47	20.55	18.38	17.08	15.63	13.33	10.05	6.28	2.77	0.11	-1.58	-2.79	-4.43	-7.5	-12.71	-20.26	-29.83	-40.65	-51.58	-61.25	-68.18	-70.92	-68.36	-60.03	-46.38	-28.85	-9.55	9.18	25.45	38.12	46.96	52.4	55.09	55.56	54.13	50.95	46.29	40.69	34.93	29.82	25.75	22.63	20.01	17.37	14.5	11.47	8.45	5.49	2.33	-1.39	-5.96	-11.31	-17.17	-23.25	-29.66	-36.82	-45.32	-55.16	-65.46	-74.23	-78.98	-77.56	-69.09	-54.31	-35.3	-14.81	4.68	21.41	34.56	44	50	52.98	53.37	51.54	47.79	42.43	35.88	28.82	22.15	16.81	13.37	11.79	11.35	10.9	9.49	6.67	2.65	-1.99	-6.67	-11.12	-15.55	-20.41	-26.17	-33.06	-41.06	-50.02
55.09	55.56	54.13	50.95	46.29	40.69	34.93	29.82	25.75	22.63	20.01	17.37	14.5	11.47	8.45	5.49	2.33	-1.39	-5.96	-11.31	-17.17	-23.25	-29.66	-36.82	-45.32	-55.16	-65.46	-74.23	-78.98	-77.56	-69.09	-54.31	-35.3	-14.81	4.68	21.41	34.56	44	50	52.98	53.37	51.54	47.79	42.43	35.88	28.82	22.15	16.81	13.37	11.79	11.35	10.9	9.49	6.67	2.65	-1.99	-6.67	-11.12	-15.55	-20.41	-26.17	-33.06	-41.06	-50.02	-59.66	-69.48	-78.49	-85.14	-87.5	-83.86	-73.44	-56.84	-36.04	-13.73	7.48	25.67	39.96	50.3	57.12	60.98	62.39	61.76	59.49	55.94	51.61	47.03	42.79	39.32	36.7	34.7	32.86	30.82	28.41	25.78	23.12	20.5	17.74	14.5	10.44	5.39	-0.6	-7.43	-15	-23.43	-32.83	-43.08	-53.55	-62.96	-69.49	-71.26	-66.84	-55.92	-39.5	-19.72	0.8	19.72	35.67	48.3	57.97	65.16	70	72.27	71.76	68.77	64.14	59.09	54.66	51.24
-59.66	-69.48	-78.49	-85.14	-87.5	-83.86	-73.44	-56.84	-36.04	-13.73	7.48	25.67	39.96	50.3	57.12	60.98	62.39	61.76	59.49	55.94	51.61	47.03	42.79	39.32	36.7	34.7	32.86	30.82	28.41	25.78	23.12	20.5	17.74	14.5	10.44	5.39	-0.6	-7.43	-15	-23.43	-32.83	-43.08	-53.55	-62.96	-69.49	-71.26	-66.84	-55.92	-39.5	-19.72	0.8	19.72	35.67	48.3	57.97	65.16	70	72.27	71.76	68.77	64.14	59.09	54.66	51.24	48.6	46.19	43.66	41.01	38.54	36.37	34.23	31.44	27.26	21.39	14.11	6.17	-1.6	-8.74	-15.24	-21.52	-28.2	-35.87	-44.86	-55.2	-66.28	-76.9	-85.2	-89.14	-87.04	-78.19	-63.21	-43.85	-22.46	-1.31	17.98	34.5	47.91	57.97	64.41	66.83	65.2	60.03	52.53	44.28	36.72	30.76	26.58	23.84	22.05	20.88	20.16	19.74	19.25	18.01	15.21	10.27	3.18	-5.4	-14.28	-22.24	-28.51	-33.03	-36.5	-40.08	-44.94	-51.97	-61.38	-72.57
48.6	46.19	43.66	41.01	38.54	36.37	34.23	31.44	27.26	21.39	14.11	6.17	-1.6	-8.74	-15.24	-21.52	-28.2	-35.87	-44.86	-55.2	-66.28	-76.9	-85.2	-89.14	-87.04	-78.19	-63.21	-43.85	-22.46	-1.31	17.98	34.5	47.91	57.97	64.41	66.83	65.2	60.03	52.53	44.28	36.72	30.76	26.58	23.84	22.05	20.88	20.16	19.74	19.25	18.01	15.21	10.27	3.18	-5.4	-14.28	-22.24	-28.51	-33.03	-36.5	-40.08	-44.94	-51.97	-61.38	-72.57	-84.05	-93.57	-98.34	-95.75	-84.11	-63.52	-36.28	-6.36	21.72	44.36	59.91	68.81	72.75	73.6	72.64	70.33	66.83	62.53	58.12	54.4	51.77	50.02	48.47	46.42	43.57	40.2	36.91	34.14	32.1	30.56	28.99	26.75	23.27	18.17	11.56	3.98	-3.65	-10.42	-15.94	-20.58	-25.48	-32.05	-41.27	-53.03	-65.76	-76.84	-83.27	-82.73	-74.34	-58.98	-38.96	-17.22	3.48	21.29	35.37	45.71	52.61	56.48	57.72	56.76	54.19	50.67	46.8	42.97
-84.05	-93.57	-98.34	-95.75	-84.11	-63.52	-36.28	-6.36	21.72	44.36	59.91	68.81	72.75	73.6	72.64	70.33	66.83	62.53	58.12	54.4	51.77	50.02	48.47	46.42	43.57	40.2	36.91	34.14	32.1	30.56	28.99	26.75	23.27	18.17	11.56	3.98	-3.65	-10.42	-15.94	-20.58	-25.48	-32.05	-41.27	-53.03	-65.76	-76.84	-83.27	-82.73	-74.34	-58.98	-38.96	-17.22	3.48	21.29	35.37	45.71	52.61	56.48	57.72	56.76	54.19	50.67	46.8	42.97	39.31	35.66	31.93	28.08	24.32	21.07	18.68	17.25	16.45	15.62	13.88	10.57	5.55	-0.83	-7.78	-14.52	-20.55	-25.86	-30.81	-36.07	-42.33	-50.14	-59.65	-70.25	-80.5	-88.16	-90.84	-86.75	-75.45	-58.05	-36.92	-14.9	5.52	22.68	35.96	45.45	51.58	54.89	55.84	54.8	52.15	48.39	44	39.5	35.35	31.78	28.75	26.06	23.43	20.65	17.78	15	12.54	10.49	8.68	6.72	4.1	0.48	-4.29	-10.03	-16.4	-23.09	-30.17	-37.98
39.31	35.66	31.93	28.08	24.32	21.07	18.68	17.25	16.45	15.62	13.88	10.57	5.55	-0.83	-7.78	-14.52	-20.55	-25.86	-30.81	-36.07	-42.33	-50.14	-59.65	-70.25	-80.5	-88.16	-90.84	-86.75	-75.45	-58.05	-36.92	-14.9	5.52	22.68	35.96	45.45	51.58	54.89	55.84	54.8	52.15	48.39	44	39.5	35.35	31.78	28.75	26.06	23.43	20.65	17.78	15	12.54	10.49	8.68	6.72	4.1	0.48	-4.29	-10.03	-16.4	-23.09	-30.17	-37.98	-46.91	-56.93	-67.09	-75.59	-80.09	-78.56	-70.05	-55.14	-35.85	-14.98	4.72	21.22	33.6	41.85	46.54	48.42	48.15	46.29	43.3	39.62	35.61	31.48	27.36	23.26	19.32	15.84	13.11	11.33	10.37	9.79	8.93	7.25	4.36	0.22	-4.99	-10.97	-17.37	-23.91	-30.39	-36.96	-43.98	-51.98	-61.1	-70.76	-79.36	-84.6	-84.22	-76.83	-62.66	-43.49	-22.23	-1.76	15.84	29.7	39.97	47.23	51.91	54.07	53.61	50.61	45.56	39.31	32.89	27.12
-46.91	-56.93	-67.09	-75.59	-80.09	-78.56	-70.05	-55.14	-35.85	-14.98	4.72	21.22	33.6	41.85	46.54	48.42	48.15	46.29	43.3	39.62	35.61	31.48	27.36	23.26	19.32	15.84	13.11	11.33	10.37	9.79	8.93	7.25	4.36	0.22	-4.99	-10.97	-17.37	-23.91	-30.39	-36.96	-43.98	-51.98	-61.1	-70.76	-79.36	-84.6	-84.22	-76.83	-62.66	-43.49	-22.23	-1.76	15.84	29.7	39.97	47.23	51.91	54.07	53.61	50.61	45.56	39.31	32.89	27.12	22.45	18.97	16.56	15.06	14.19	13.59	12.76	11.2	8.56	4.74	-0.05	-5.5	-11.21	-16.91	-22.47	-27.95	-33.67	-40.07	-47.68	-56.67	-66.6	-76	-82.68	-84.17	-78.79	-66.18	-47.71	-25.97	-3.97	15.83	31.98	44.09	52.55	57.96	60.86	61.6	60.41	57.42	52.89	47.23	41	34.89	29.52	25.29	22.26	20.16	18.5	16.73	14.38	11.19	7.16	2.5	-2.45	-7.36	-12.14	-16.97	-22.31	-28.65	-36.44	-45.85	-56.72	-68.29	-79.16	-87.35
22.45	18.97	16.56	15.06	14.19	13.59	12.76	11.2	8.56	4.74	-0.05	-5.5	-11.21	-16.91	-22.47	-27.95	-33.67	-40.07	-47.68	-56.67	-66.6	-76	-82.68	-84.17	-78.79	-66.18	-47.71	-25.97	-3.97	15.83	31.98	44.09	52.55	57.96	60.86	61.6	60.41	57.42	52.89	47.23	41	34.89	29.52	25.29	22.26	20.16	18.5	16.73	14.38	11.19	7.16	2.5	-2.45	-7.36	-12.14	-16.97	-22.31	-28.65	-36.44	-45.85	-56.72	-68.29	-79.16	-87.35	-90.66	-87.36	-76.88	-60.26	-39.85	-18.61	0.78	16.64	28.41	36.35	41.04	43.05	42.81	40.7	37.09	32.29	26.6	20.25	13.63	7.27	1.79	-2.21	-4.42	-4.8	-3.49	-0.65	3.66	9.36	16.15	23.38	30.18	35.7	39.42	41.3	41.64	40.74	38.74	35.74	32.04	28.54	26.67	28.07	33.98	44.8	59.88	77.74	96.42	113.99	128.78	139.53	145.48	146.33	142.28	133.97	122.34	108.46	93.38	78.02	63.2	49.59	37.83	28.37	21.49	17.11
-90.66	-87.36	-76.88	-60.26	-39.85	-18.61	0.78	16.64	28.41	36.35	41.04	43.05	42.81	40.7	37.09	32.29	26.6	20.25	13.63	7.27	1.79	-2.21	-4.42	-4.8	-3.49	-0.65	3.66	9.36	16.15	23.38	30.18	35.7	39.42	41.3	41.64	40.74	38.74	35.74	32.04	28.54	26.67	28.07	33.98	44.8	59.88	77.74	96.42	113.99	128.78	139.53	145.48	146.33	142.28	133.97	122.34	108.46	93.38	78.02	63.2	49.59	37.83	28.37	21.49	17.11	14.69	13.22	11.36	7.85	1.86	-6.63	-16.93	-27.9	-38.57	-48.47	-57.92	-67.71	-78.67	-91.13	-104.7	-118.15	-129.68	-137.44	-139.95	-136.66	-128.05	-115.54	-101.15	-86.85	-74.06	-63.42	-54.98	-48.48	-43.62	-40.3	-38.49	-38.1	-38.83	-40.27	-41.8	-42.88	-43.09	-42.33	-40.82	-39.03	-37.61	-37.1	-37.82	-39.73	-42.55	-45.94	-49.77	-54.19	-59.49	-66.09	-74.29	-84.35	-96.25	-109.51	-123	-135	-143.44	-146.51	-143.26	-133.98	-120.06	-103.43	-85.88	-68.5
14.69	13.22	11.36	7.85	1.86	-6.63	-16.93	-27.9	-38.57	-48.47	-57.92	-67.71	-78.67	-91.13	-104.7	-118.15	-129.68	-137.44	-139.95	-136.66	-128.05	-115.54	-101.15	-86.85	-74.06	-63.42	-54.98	-48.48	-43.62	-40.3	-38.49	-38.1	-38.83	-40.27	-41.8	-42.88	-43.09	-42.33	-40.82	-39.03	-37.61	-37.1	-37.82	-39.73	-42.55	-45.94	-49.77	-54.19	-59.49	-66.09	-74.29	-84.35	-96.25	-109.51	-123	-135	-143.44	-146.51	-143.26	-133.98	-120.06	-103.43	-85.88	-68.5	-51.61	-35.1	-18.92	-3.3	11.26	24.42	36.26	47.38	58.59	70.45	82.87	94.99	105.33	112.24	114.42	111.31	103.39	92.01	79.01	66.2	54.69	44.76	36.04	27.81	19.58	11.23	2.96	-4.84	-11.46	-15.66	-15.59	-9.25	4.61	25.54	51.2	77.92	102.03	121.06	134.16	141.74	144.49	142.75	136.5	125.82	111.53	95.24	78.96	64.19	51.4	39.97	28.65	16.3	2.39	-12.8	-28.29	-42.97	-55.99	-67.1	-76.74	-85.89	-95.64	-106.81	-119.65	-133.99
-51.61	-35.1	-18.92	-3.3	11.26	24.42	36.26	47.38	58.59	70.45	82.87	94.99	105.33	112.24	114.42	111.31	103.39	92.01	79.01	66.2	54.69	44.76	36.04	27.81	19.58	11.23	2.96	-4.84	-11.46	-15.66	-15.59	-9.25	4.61	25.54	51.2	77.92	102.03	121.06	134.16	141.74	144.49	142.75	136.5	125.82	111.53	95.24	78.96	64.19	51.4	39.97	28.65	16.3	2.39	-12.8	-28.29	-42.97	-55.99	-67.1	-76.74	-85.89	-95.64	-106.81	-119.65	-133.99	-149.22	-164.65	-179.23	-191.58	-199.74	-201.48	-194.92	-179.25	-155.37	-125.73	-93.65	-62.25	-33.65	-8.7	12.76	31.15	46.76	59.53	69.33	76.25	80.82	83.86	86.35	89.07	92.4	96.35	100.55	104.54	107.82	110.05	111	110.54	108.67	105.38	100.68	94.45	86.46	76.25	63.36	47.56	29.21	9.58	-9.17	-24.22	-32.99	-33.84	-26.76	-13.32	3.77	21.42	37.11	49.24	57.32	61.56	62.45	60.4	55.7	48.6	39.72	30.14	21.28	14.49	10.63	9.63
-149.22	-164.65	-179.23	-191.58	-199.74	-201.48	-194.92	-179.25	-155.37	-125.73	-93.65	-62.25	-33.65	-8.7	12.76	31.15	46.76	59.53	69.33	76.25	80.82	83.86	86.35	89.07	92.4	96.35	100.55	104.54	107.82	110.05	111	110.54	108.67	105.38	100.68	94.45	86.46	76.25	63.36	47.56	29.21	9.58	-9.17	-24.22	-32.99	-33.84	-26.76	-13.32	3.77	21.42	37.11	49.24	57.32	61.56	62.45	60.4	55.7	48.6	39.72	30.14	21.28	14.49	10.63	9.63	10.62	12.33	13.54	13.59	12.5	10.62	8.39	5.94	3.07	-0.71	-5.93	-13.06	-22.45	-34.27	-48.47	-64.45	-80.79	-95.23	-105.02	-107.66	-101.84	-87.88	-67.74	-44.36	-20.73	0.82	19.06	33.69	45.05	53.7	60.11	64.63	67.35	68.17	66.89	63.33	57.64	50.33	42.26	34.37	27.42	21.69	16.99	12.72	8.17	2.83	-3.46	-10.5	-17.91	-25.33	-32.67	-40.09	-48.06	-57.08	-67.56	-79.47	-92.07	-103.83	-112.52	-115.75	-111.69	-99.87	-81.44	-58.96
10.62	12.33	13.54	13.59	12.5	10.62	8.39	5.94	3.07	-0.71	-5.93	-13.06	-22.45	-34.27	-48.47	-64.45	-80.79	-95.23	-105.02	-107.66	-101.84	-87.88	-67.74	-44.36	-20.73	0.82	19.06	33.69	45.05	53.7	60.11	64.63	67.35	68.17	66.89	63.33	57.64	50.33	42.26	34.37	27.42	21.69	16.99	12.72	8.17	2.83	-3.46	-10.5	-17.91	-25.33	-32.67	-40.09	-48.06	-57.08	-67.56	-79.47	-92.07	-103.83	-112.52	-115.75	-111.69	-99.87	-81.44	-58.96	-35.57	-14.06	3.87	17.73	27.87	34.92	39.42	41.66	41.91	40.6	38.37	35.88	33.53	31.37	29.18	26.63	23.63	20.27	16.84	13.54	10.47	7.61	4.91	2.42	0.22	-1.78	-3.91	-6.83	-11.29	-17.94	-27.04	-38.2	-50.23	-61.32	-69.17	-71.63	-67.27	-55.84	-38.41	-17.1	5.46	26.85	45.32	60.03	70.87	78.17	82.43	84.07	83.49	81.03	77.14	72.28	66.91	61.45	56.12	51.01	46.16	41.59	37.36	33.49	29.87	26.27	22.39	17.98
-35.57	-14.06	3.87	17.73	27.87	34.92	39.42	41.66	41.91	40.6	38.37	35.88	33.53	31.37	29.18	26.63	23.63	20.27	16.84	13.54	10.47	7.61	4.91	2.42	0.22	-1.78	-3.91	-6.83	-11.29	-17.94	-27.04	-38.2	-50.23	-61.32	-69.17	-71.63	-67.27	-55.84	-38.41	-17.1	5.46	26.85	45.32	60.03	70.87	78.17	82.43	84.07	83.49	81.03	77.14	72.28	66.91	61.45	56.12	51.01	46.16	41.59	37.36	33.49	29.87	26.27	22.39	17.98	12.95	7.25	0.95	-5.9	-13.3	-21.39	-30.43	-40.79	-52.68	-65.87	-79.36	-91.22	-98.97	-100.38	-94.18	-80.68	-61.7	-39.99	-18.33	1.2	17.56	30.55	40.46	47.5	51.78	53.33	52.29	49.11	44.55	39.43	34.42	29.9	26.01	22.7	19.99	17.85	16.2	14.76	13.07	10.6	7.05	2.46	-2.71	-7.85	-12.48	-16.5	-20.25	-24.37	-29.66	-36.68	-45.63	-56.05	-66.7	-75.66	-80.64	-79.63	-71.55	-56.73	-36.97	-15.01	6.27	24.68	39.18	49.78
12.95	7.25	0.95	-5.9	-13.3	-21.39	-30.43	-40.79	-52.68	-65.87	-79.36	-91.22	-98.97	-100.38	-94.18	-80.68	-61.7	-39.99	-18.33	1.2	17.56	30.55	40.46	47.5	51.78	53.33	52.29	49.11	44.55	39.43	34.42	29.9	26.01	22.7	19.99	17.85	16.2	14.76	13.07	10.6	7.05	2.46	-2.71	-7.85	-12.48	-16.5	-20.25	-24.37	-29.66	-36.68	-45.63	-56.05	-66.7	-75.66	-80.64	-79.63	-71.55	-56.73	-36.97	-15.01	6.27	24.68	39.18	49.78	57.1	61.75	64.02	63.92	61.52	57.19	51.69	45.93	40.59	35.96	31.92	28.28	25.01	22.33	20.45	19.31	18.43	17.09	14.72	11.23	6.95	2.48	-1.74	-5.69	-9.72	-14.39	-20.23	-27.64	-36.85	-47.82	-59.99	-72.04	-81.81	-86.76	-84.74	-74.95	-58.3	-37.28	-15.11	5.45	22.62	35.98	45.83	52.78	57.19	59.17	58.74	56.16	51.96	46.86	41.56	36.51	31.93	27.79	24.04	20.65	17.69	15.21	13.16	11.2	8.81	5.4	0.51	-5.93
57.1	61.75	64.02	63.92	61.52	57.19	51.69	45.93	40.59	35.96	31.92	28.28	25.01	22.33	20.45	19.31	18.43	17.09	14.72	11.23	6.95	2.48	-1.74	-5.69	-9.72	-14.39	-20.23	-27.64	-36.85	-47.82	-59.99	-72.04	-81.81	-86.76	-84.74	-74.95	-58.3	-37.28	-15.11	5.45	22.62	35.98	45.83	52.78	57.19	59.17	58.74	56.16	51.96	46.86	41.56	36.51	31.93	27.79	24.04	20.65	17.69	15.21	13.16	11.2	8.81	5.4	0.51	-5.93	-13.6	-21.81	-29.8	-37.01	-43.3	-49.08	-55.23	-62.73	-72.31	-83.85	-96.21	-107.4	-115.15	-117.68	-114.44	-106.29	-95.27	-83.83	-74.1	-67.39	-64.03	-63.78	-66.22	-71.21	-78.91	-89.55	-102.91	-117.99	-132.76	-144.38	-149.83	-146.73	-134.22	-113.33	-86.59	-57.06	-27.06	2.76	33.53	67.42	106.3	150.48	198.11	245.36	287.44	319.87	339.49	345.15	337.71	319.68	294.46	265.44	235.47	206.41	179.61	156.09	136.79	122.42	112.94	107.38	103.83	100.2	94.89	87.38
-13.6	-21.81	-29.8	-37.01	-43.3	-49.08	-55.23	-62.73	-72.31	-83.85	-96.21	-107.4	-115.15	-117.68	-114.44	-106.29	-95.27	-83.83	-74.1	-67.39	-64.03	-63.78	-66.22	-71.21	-78.91	-89.55	-102.91	-117.99	-132.76	-144.38	-149.83	-146.73	-134.22	-113.33	-86.59	-57.06	-27.06	2.76	33.53	67.42	106.3	150.48	198.11	245.36	287.44	319.87	339.49	345.15	337.71	319.68	294.46	265.44	235.47	206.41	179.61	156.09	136.79	122.42	112.94	107.38	103.83	100.2	94.89	87.38	78.19	68.19	58.04	47.7	36.56	24	9.98	-4.66	-18.47	-29.91	-37.98	-42.65	-44.86	-46.11	-48.07	-52.15	-59.23	-69.66	-83.25	-99.28	-116.51	-133.37	-148.24	-159.95	-168	-172.69	-174.77	-175.08	-174.26	-172.72	-170.87	-169.23	-168.32	-168.26	-168.31	-166.66	-160.94	-149.09	-130.3	-105.53	-77.28	-48.69	-22.5	-0.31	17.55	31.56	42.4	50.56	56.21	59.53	61	61.51	62.06	63.32	65.33	67.47	68.88	69	67.86	66.08	64.4	63.16	62.09	60.41
78.19	68.19	58.04	47.7	36.56	24	9.98	-4.66	-18.47	-29.91	-37.98	-42.65	-44.86	-46.11	-48.07	-52.15	-59.23	-69.66	-83.25	-99.28	-116.51	-133.37	-148.24	-159.95	-168	-172.69	-174.77	-175.08	-174.26	-172.72	-170.87	-169.23	-168.32	-168.26	-168.31	-166.66	-160.94	-149.09	-130.3	-105.53	-77.28	-48.69	-22.5	-0.31	17.55	31.56	42.4	50.56	56.21	59.53	61	61.51	62.06	63.32	65.33	67.47	68.88	69	67.86	66.08	64.4	63.16	62.09	60.41	57.32	52.51	46.18	39.07	31.96	25.31	19.23	13.46	7.51	0.86	-6.83	-15.4	-24.01	-31.17	-35.07	-34.26	-28.21	-17.62	-4.22	9.87	22.85	33.68	42.18	48.66	53.44	56.58	57.92	57.25	54.67	50.58	45.61	40.26	34.81	29.37	24.04	19.04	14.79	11.72	10.02	9.42	9.3	8.76	6.99	3.44	-1.88	-8.46	-15.38	-21.71	-26.82	-30.75	-34.18	-38.12	-43.34	-49.86	-56.63	-61.79	-63.33	-59.77	-50.77	-37.3	-21.28	-4.93	9.8	21.69
57.32	52.51	46.18	39.07	31.96	25.31	19.23	13.46	7.51	0.86	-6.83	-15.4	-24.01	-31.17	-35.07	-34.26	-28.21	-17.62	-4.22	9.87	22.85	33.68	42.18	48.66	53.44	56.58	57.92	57.25	54.67	50.58	45.61	40.26	34.81	29.37	24.04	19.04	14.79	11.72	10.02	9.42	9.3	8.76	6.99	3.44	-1.88	-8.46	-15.38	-21.71	-26.82	-30.75	-34.18	-38.12	-43.34	-49.86	-56.63	-61.79	-63.33	-59.77	-50.77	-37.3	-21.28	-4.93	9.8	21.69	30.27	35.65	38.15	38.19	36.23	32.77	28.34	23.42	18.37	13.42	8.77	4.68	1.56	-0.36	-1.1	-1.11	-1.16	-1.89	-3.59	-6.03	-8.62	-10.88	-12.73	-14.56	-17.14	-21.27	-27.43	-35.62	-45.28	-55.22	-63.93	-69.72	-71.24	-67.73	-59.27	-46.72	-31.44	-14.92	1.36	16.12	28.29	37.16	42.41	44.3	43.53	40.95	37.33	33.07	28.28	22.97	17.34	11.81	6.85	2.74	-0.55	-3.4	-6.24	-9.38	-12.83	-16.3	-19.52	-22.32	-24.83	-27.37
30.27	35.65	38.15	38.19	36.23	32.77	28.34	23.42	18.37	13.42	8.77	4.68	1.56	-0.36	-1.1	-1.11	-1.16	-1.89	-3.59	-6.03	-8.62	-10.88	-12.73	-14.56	-17.14	-21.27	-27.43	-35.62	-45.28	-55.22	-63.93	-69.72	-71.24	-67.73	-59.27	-46.72	-31.44	-14.92	1.36	16.12	28.29	37.16	42.41	44.3	43.53	40.95	37.33	33.07	28.28	22.97	17.34	11.81	6.85	2.74	-0.55	-3.4	-6.24	-9.38	-12.83	-16.3	-19.52	-22.32	-24.83	-27.37	-30.37	-34.27	-39.51	-46.41	-55.04	-64.9	-74.8	-82.84	-86.87	-85.14	-77.05	-63.38	-46.15	-27.86	-10.76	3.91	15.9	25.62	33.55	39.83	44.2	46.24	45.75	42.93	38.4	32.96	27.27	21.82	16.87	12.65	9.36	7.15	5.96	5.41	4.86	3.69	1.52	-1.59	-5.28	-9.19	-13.32	-18.03	-23.95	-31.62	-40.98	-51.15	-60.57	-67.27	-69.44	-65.92	-56.52	-42.12	-24.51	-5.96	11.37	25.86	36.69	43.93	48.07	49.74	49.41	47.37	43.82	39.11
-30.37	-34.27	-39.51	-46.41	-55.04	-64.9	-74.8	-82.84	-86.87	-85.14	-77.05	-63.38	-46.15	-27.86	-10.76	3.91	15.9	25.62	33.55	39.83	44.2	46.24	45.75	42.93	38.4	32.96	27.27	21.82	16.87	12.65	9.36	7.15	5.96	5.41	4.86	3.69	1.52	-1.59	-5.28	-9.19	-13.32	-18.03	-23.95	-31.62	-40.98	-51.15	-60.57	-67.27	-69.44	-65.92	-56.52	-42.12	-24.51	-5.96	11.37	25.86	36.69	43.93	48.07	49.74	49.41	47.37	43.82	39.11	33.78	28.35	23.26	18.73	14.78	11.31	8.26	5.62	3.41	1.58	-0.03	-1.64	-3.46	-5.69	-8.46	-11.92	-16.31	-21.94	-29.07	-37.64	-47.07	-56.01	-62.65	-64.98	-61.52	-51.88	-37.01	-18.99	-0.34	16.66	30.53	40.74	47.46	51.18	52.29	51.04	47.62	42.51	36.44	30.4	25.22	21.23	18.17	15.41	12.41	8.96	5.36	2.13	-0.43	-2.37	-4.16	-6.3	-9.15	-12.82	-17.35	-22.97	-30.05	-38.83	-48.98	-59.34	-68.02	-72.96	-72.53	-66.05
33.78	28.35	23.26	18.73	14.78	11.31	8.26	5.62	3.41	1.58	-0.03	-1.64	-3.46	-5.69	-8.46	-11.92	-16.31	-21.94	-29.07	-37.64	-47.07	-56.01	-62.65	-64.98	-61.52	-51.88	-37.01	-18.99	-0.34	16.66	30.53	40.74	47.46	51.18	52.29	51.04	47.62	42.51	36.44	30.4	25.22	21.23	18.17	15.41	12.41	8.96	5.36	2.13	-0.43	-2.37	-4.16	-6.3	-9.15	-12.82	-17.35	-22.97	-30.05	-38.83	-48.98	-59.34	-68.02	-72.96	-72.53	-66.05	-53.94	-37.48	-18.5	1	19.07	34.2	45.45	52.62	56.11	56.61	54.77	50.94	45.42	38.65	31.52	25.22	20.68	18.16	17	16.08	14.3	11.23	7.11	2.56	-1.82	-5.88	-9.81	-13.96	-18.57	-23.77	-29.67	-36.56	-44.65	-53.86	-63.32	-71.29	-75.57	-74.19	-66.21	-52.16	-33.95	-14.17	4.71	21	34.1	44.14	51.47	56.24	58.29	57.33	53.41	47.12	39.59	32.18	25.98	21.49	18.49	16.38	14.45	12.28	9.69	6.67	3.21	-0.76
-53.94	-37.48	-18.5	1	19.07	34.2	45.45	52.62	56.11	56.61	54.77	50.94	45.42	38.65	31.52	25.22	20.68	18.16	17	16.08	14.3	11.23	7.11	2.56	-1.82	-5.88	-9.81	-13.96	-18.57	-23.77	-29.67	-36.56	-44.65	-53.86	-63.32	-71.29	-75.57	-74.19	-66.21	-52.16	-33.95	-14.17	4.71	21	34.1	44.14	51.47	56.24	58.29	57.33	53.41	47.12	39.59	32.18	25.98	21.49	18.49	16.38	14.45	12.28	9.69	6.67	3.21	-0.76	-5.36	-10.63	-16.47	-22.74	-29.35	-36.47	-44.34	-53.1	-62.49	-71.51	-78.59	-81.88	-79.82	-71.62	-57.55	-38.83	-17.33	4.85	25.65	43.35	56.7	65.06	68.38	67.27	62.81	56.45	49.65	43.8	39.86	38.29	38.78	40.37	41.67	41.42	38.97	34.54	29.02	23.51	18.65	14.38	9.99	4.57	-2.59	-11.73	-22.67	-34.9	-47.68	-60	-70.44	-77.3	-78.93	-74.28	-63.34	-47.26	-28.13	-8.32	10.07	25.64	37.79	46.49	51.98	54.63	54.77	52.76
-5.36	-10.63	-16.47	-22.74	-29.35	-36.47	-44.34	-53.1	-62.49	-71.51	-78.59	-81.88	-79.82	-71.62	-57.55	-38.83	-17.33	4.85	25.65	43.35	56.7	65.06	68.38	67.27	62.81	56.45	49.65	43.8	39.86	38.29	38.78	40.37	41.67	41.42	38.97	34.54	29.02	23.51	18.65	14.38	9.99	4.57	-2.59	-11.73	-22.67	-34.9	-47.68	-60	-70.44	-77.3	-78.93	-74.28	-63.34	-47.26	-28.13	-8.32	10.07	25.64	37.79	46.49	51.98	54.63	54.77	52.76	49.04	44.16	38.76	33.41	28.45	24.03	20.01	16.23	12.55	8.97	5.54	2.22	-1.23	-5.14	-9.84	-15.42	-21.71	-28.41	-35.32	-42.56	-50.48	-59.56	-69.9	-80.93	-91.3	-99.2	-102.67	-100.14	-90.79	-74.8	-53.44	-28.93	-3.98	18.79	37.47	51.19	60.13	65.11	67.17	67.07	65.25	61.88	57.21	51.72	46.17	41.35	37.84	35.78	34.82	34.34	33.58	31.92	29.16	25.36	20.78	15.66	10.15	4.22	-2.24	-9.33	-17.14	-25.78	-35.35	-45.71
49.04	44.16	38.76	33.41	28.45	24.03	20.01	16.23	12.55	8.97	5.54	2.22	-1.23	-5.14	-9.84	-15.42	-21.71	-28.41	-35.32	-42.56	-50.48	-59.56	-69.9	-80.93	-91.3	-99.2	-102.67	-100.14	-90.79	-74.8	-53.44	-28.93	-3.98	18.79	37.47	51.19	60.13	65.11	67.17	67.07	65.25	61.88	57.21	51.72	46.17	41.35	37.84	35.78	34.82	34.34	33.58	31.92	29.16	25.36	20.78	15.66	10.15	4.22	-2.24	-9.33	-17.14	-25.78	-35.35	-45.71	-56.37	-66.33	-74.06	-77.86	-76.26	-68.52	-54.92	-36.75	-16	5.06	24.5	41.08	54.36	64.56	72.07	77.15	79.8	79.91	77.58	73.35	68.19	63.09	58.76	55.34	52.53	49.83	46.95	43.91	40.99	38.48	36.4	34.41	31.87	28.11	22.63	15.45	7.06	-1.65	-9.78	-16.76	-22.54	-27.66	-32.91	-39.13	-46.91	-56.38	-67.18	-78.36	-88.33	-95.05	-96.43	-90.96	-78.37	-59.76	-37.41	-13.98	8.18	27.52	43.39	55.71	64.71	70.67	73.89	74.72
-56.37	-66.33	-74.06	-77.86	-76.26	-68.52	-54.92	-36.75	-16	5.06	24.5	41.08	54.36	64.56	72.07	77.15	79.8	79.91	77.58	73.35	68.19	63.09	58.76	55.34	52.53	49.83	46.95	43.91	40.99	38.48	36.4	34.41	31.87	28.11	22.63	15.45	7.06	-1.65	-9.78	-16.76	-22.54	-27.66	-32.91	-39.13	-46.91	-56.38	-67.18	-78.36	-88.33	-95.05	-96.43	-90.96	-78.37	-59.76	-37.41	-13.98	8.18	27.52	43.39	55.71	64.71	70.67	73.89	74.72	73.65	71.3	68.41	65.59	63.23	61.4	59.85	58.15	55.87	52.8	49.18	45.53	42.41	40.01	37.94	35.26	30.94	24.48	16.2	7.29	-0.89	-7.43	-12.35	-16.63	-21.64	-28.56	-37.75	-48.65	-59.98	-70.08	-77.32	-80.36	-78.39	-71.24	-59.46	-44.22	-27.05	-9.47	7.28	22.21	34.71	44.25	50.53	53.54	53.66	51.66	48.46	44.96	41.77	39.19	37.2	35.69	34.52	33.52	32.49	31.26	29.73	27.91	25.95	23.92	21.68	18.89	15.1	10.07
73.65	71.3	68.41	65.59	63.23	61.4	59.85	58.15	55.87	52.8	49.18	45.53	42.41	40.01	37.94	35.26	30.94	24.48	16.2	7.29	-0.89	-7.43	-12.35	-16.63	-21.64	-28.56	-37.75	-48.65	-59.98	-70.08	-77.32	-80.36	-78.39	-71.24	-59.46	-44.22	-27.05	-9.47	7.28	22.21	34.71	44.25	50.53	53.54	53.66	51.66	48.46	44.96	41.77	39.19	37.2	35.69	34.52	33.52	32.49	31.26	29.73	27.91	25.95	23.92	21.68	18.89	15.1	10.07	3.96	-2.65	-9.08	-14.86	-20	-24.9	-30.13	-36.15	-43.13	-50.93	-59.12	-66.93	-73.15	-76.31	-74.99	-68.38	-56.62	-40.92	-23.19	-5.36	11.07	25.25	36.89	45.91	52.24	55.83	56.85	55.83	53.58	50.95	48.54	46.54	44.8	42.96	40.77	38.2	35.41	32.7	30.3	28.32	26.65	25	22.97	20.13	16.21	11.22	5.46	-0.54	-6.21	-11.25	-15.75	-20.13	-25.01	-30.86	-37.91	-46.02	-54.62	-62.77	-69.19	-72.45	-71.3	-65.1	-54.13	-39.6
3.96	-2.65	-9.08	-14.86	-20	-24.9	-30.13	-36.15	-43.13	-50.93	-59.12	-66.93	-73.15	-76.31	-74.99	-68.38	-56.62	-40.92	-23.19	-5.36	11.07	25.25	36.89	45.91	52.24	55.83	56.85	55.83	53.58	50.95	48.54	46.54	44.8	42.96	40.77	38.2	35.41	32.7	30.3	28.32	26.65	25	22.97	20.13	16.21	11.22	5.46	-0.54	-6.21	-11.25	-15.75	-20.13	-25.01	-30.86	-37.91	-46.02	-54.62	-62.77	-69.19	-72.45	-71.3	-65.1	-54.13	-39.6	-23.27	-7.01	7.73	20.09	29.81	36.98	41.86	44.79	46.18	46.5	46.1	45.13	43.44	40.83	37.22	32.83	28.17	23.85	20.28	17.61	15.75	14.5	13.6	12.74	11.58	9.73	6.91	3.09	-1.47	-6.25	-10.82	-15.05	-19.2	-23.77	-29.25	-35.79	-43.16	-50.7	-57.5	-62.55	-64.86	-63.66	-58.62	-49.91	-38.33	-25.05	-11.37	1.63	13.15	22.78	30.25	35.47	38.42	39.35	38.67	36.91	34.58	32.03	29.38	26.6	23.69	20.75	18.05	15.84
-23.27	-7.01	7.73	20.09	29.81	36.98	41.86	44.79	46.18	46.5	46.1	45.13	43.44	40.83	37.22	32.83	28.17	23.85	20.28	17.61	15.75	14.5	13.6	12.74	11.58	9.73	6.91	3.09	-1.47	-6.25	-10.82	-15.05	-19.2	-23.77	-29.25	-35.79	-43.16	-50.7	-57.5	-62.55	-64.86	-63.66	-58.62	-49.91	-38.33	-25.05	-11.37	1.63	13.15	22.78	30.25	35.47	38.42	39.35	38.67	36.91	34.58	32.03	29.38	26.6	23.69	20.75	18.05	15.84	14.28	13.31	12.65	11.97	10.92	9.27	6.92	3.85	0.13	-4.1	-8.71	-13.54	-18.55	-23.8	-29.48	-35.83	-42.91	-50.33	-57.17	-62.08	-63.68	-61.01	-53.91	-43.16	-30.1	-16.2	-2.71	9.56	20.09	28.52	34.53	37.99	39	38.06	35.81	32.81	29.35	25.5	21.34	17.12	13.32	10.43	8.7	7.99	7.84	7.76	7.33	6.22	4.29	1.42	-2.31	-6.6	-10.98	-15	-18.52	-21.91	-25.88	-31.11	-37.81	-45.4	-52.61	-57.83	-59.62	-57.08
14.28	13.31	12.65	11.97	10.92	9.27	6.92	3.85	0.13	-4.1	-8.71	-13.54	-18.55	-23.8	-29.48	-35.83	-42.91	-50.33	-57.17	-62.08	-63.68	-61.01	-53.91	-43.16	-30.1	-16.2	-2.71	9.56	20.09	28.52	34.53	37.99	39	38.06	35.81	32.81	29.35	25.5	21.34	17.12	13.32	10.43	8.7	7.99	7.84	7.76	7.33	6.22	4.29	1.42	-2.31	-6.6	-10.98	-15	-18.52	-21.91	-25.88	-31.11	-37.81	-45.4	-52.61	-57.83	-59.62	-57.08	-50.06	-39.19	-25.72	-11.24	2.62	14.56	23.84	30.32	34.35	36.45	37.07	36.39	34.46	31.42	27.62	23.7	20.34	18.01	16.77	16.24	15.84	15.06	13.67	11.78	9.64	7.42	5.09	2.45	-0.68	-4.29	-8.19	-12.19	-16.26	-20.73	-26.11	-32.83	-40.93	-49.85	-58.42	-65.22	-68.76	-67.91	-62.13	-51.72	-37.78	-22	-6.23	7.97	19.65	28.53	34.76	38.65	40.52	40.66	39.47	37.42	34.95	32.28	29.38	26.1	22.42	18.65	15.27	12.82
-50.06	-39.19	-25.72	-11.24	2.62	14.56	23.84	30.32	34.35	36.45	37.07	36.39	34.46	31.42	27.62	23.7	20.34	18.01	16.77	16.24	15.84	15.06	13.67	11.78	9.64	7.42	5.09	2.45	-0.68	-4.29	-8.19	-12.19	-16.26	-20.73	-26.11	-32.83	-40.93	-49.85	-58.42	-65.22	-68.76	-67.91	-62.13	-51.72	-37.78	-22	-6.23	7.97	19.65	28.53	34.76	38.65	40.52	40.66	39.47	37.42	34.95	32.28	29.38	26.1	22.42	18.65	15.27	12.82	11.55	11.25	11.39	11.28	10.36	8.36	5.31	1.45	-2.94	-7.58	-12.33	-17.17	-22.24	-27.77	-34.03	-41.15	-49.05	-57.17	-64.45	-69.42	-70.54	-66.75	-57.95	-45.05	-29.81	-14.19	0.24	12.71	23.03	31.38	37.83	42.34	44.82	45.36	44.34	42.25	39.6	36.64	33.48	30.17	26.88	23.81	21.21	19.16	17.54	16.07	14.33	12	8.95	5.23	1.05	-3.33	-7.72	-12.16	-16.73	-21.56	-26.7	-32.19	-38.12	-44.62	-51.6	-58.51	-64.11	-66.69
11.55	11.25	11.39	11.28	10.36	8.36	5.31	1.45	-2.94	-7.58	-12.33	-17.17	-22.24	-27.77	-34.03	-41.15	-49.05	-57.17	-64.45	-69.42	-70.54	-66.75	-57.95	-45.05	-29.81	-14.19	0.24	12.71	23.03	31.38	37.83	42.34	44.82	45.36	44.34	42.25	39.6	36.64	33.48	30.17	26.88	23.81	21.21	19.16	17.54	16.07	14.33	12	8.95	5.23	1.05	-3.33	-7.72	-12.16	-16.73	-21.56	-26.7	-32.19	-38.12	-44.62	-51.6	-58.51	-64.11	-66.69	-64.67	-57.34	-45.27	-30.18	-14.3	0.46	12.95	22.84	30.33	35.74	39.35	41.31	41.78	40.94	39.03	36.28	33.03	29.66	26.53	23.89	21.76	20	18.34	16.54	14.52	12.24	9.68	6.72	3.23	-0.86	-5.52	-10.48	-15.47	-20.19	-24.61	-28.92	-33.61	-39.28	-46.24	-54.16	-61.86	-67.54	-69.25	-65.81	-57.1	-44.23	-29.02	-13.47	0.91	13.31	23.46	31.5	37.54	41.68	43.92	44.33	43.16	40.84	37.92	34.91	32.23	30.06	28.3	26.74
-64.67	-57.34	-45.27	-30.18	-14.3	0.46	12.95	22.84	30.33	35.74	39.35	41.31	41.78	40.94	39.03	36.28	33.03	29.66	26.53	23.89	21.76	20	18.34	16.54	14.52	12.24	9.68	6.72	3.23	-0.86	-5.52	-10.48	-15.47	-20.19	-24.61	-28.92	-33.61	-39.28	-46.24	-54.16	-61.86	-67.54	-69.25	-65.81	-57.1	-44.23	-29.02	-13.47	0.91	13.31	23.46	31.5	37.54	41.68	43.92	44.33	43.16	40.84	37.92	34.91	32.23	30.06	28.3	26.74	25.11	23.21	20.98	18.49	15.71	12.63	9.08	5	0.46	-4.26	-8.72	-12.63	-15.96	-19.08	-22.64	-27.35	-33.65	-41.36	-49.79	-57.68	-63.55	-66	-64.06	-57.38	-46.45	-32.46	-17.05	-1.97	11.4	22.22	30.25	35.73	39.1	40.76	41	40.03	38.09	35.5	32.61	29.77	27.18	24.87	22.74	20.72	18.74	16.83	15.08	13.55	12.15	10.62	8.51	5.39	1.02	-4.39	-10.33	-16.06	-21.15	-25.68	-30.23	-35.54	-41.85	-48.63	-54.6	-58.16
25.11	23.21	20.98	18.49	15.71	12.63	9.08	5	0.46	-4.26	-8.72	-12.63	-15.96	-19.08	-22.64	-27.35	-33.65	-41.36	-49.79	-57.68	-63.55	-66	-64.06	-57.38	-46.45	-32.46	-17.05	-1.97	11.4	22.22	30.25	35.73	39.1	40.76	41	40.03	38.09	35.5	32.61	29.77	27.18	24.87	22.74	20.72	18.74	16.83	15.08	13.55	12.15	10.62	8.51	5.39	1.02	-4.39	-10.33	-16.06	-21.15	-25.68	-30.23	-35.54	-41.85	-48.63	-54.6	-58.16	-58.06	-53.72	-45.34	-33.83	-20.54	-6.95	5.52	15.93	23.93	29.73	33.84	36.7	38.32	38.41	36.66	33.19	28.69	24.25	20.82	18.73	17.63	16.85	15.81	14.38	12.78	11.3	9.96	8.52	6.6	3.95	0.64	-3	-6.68	-10.35	-14.26	-18.77	-24.09	-30.02	-35.94	-40.88	-43.85	-44.01	-40.93	-34.66	-25.81	-15.44	-4.84	4.89	13.07	19.57	24.56	28.24	30.55	31.26	30.23	27.66	24.25	20.95	18.48	17.11	16.56	16.28	15.69	14.53
-58.06	-53.72	-45.34	-33.83	-20.54	-6.95	5.52	15.93	23.93	29.73	33.84	36.7	38.32	38.41	36.66	33.19	28.69	24.25	20.82	18.73	17.63	16.85	15.81	14.38	12.78	11.3	9.96	8.52	6.6	3.95	0.64	-3	-6.68	-10.35	-14.26	-18.77	-24.09	-30.02	-35.94	-40.88	-43.85	-44.01	-40.93	-34.66	-25.81	-15.44	-4.84	4.89	13.07	19.57	24.56	28.24	30.55	31.26	30.23	27.66	24.25	20.95	18.48	17.11	16.56	16.28	15.69	14.53	12.87	10.86	8.64	6.2	3.45	0.38	-2.91	-6.18	-9.2	-11.88	-14.35	-16.92	-20	-23.94	-28.9	-34.67	-40.68	-45.84	-48.85	-48.5	-44.08	-35.7	-24.38	-11.77	0.38	10.65	18.41	23.66	26.89	28.65	29.34	29.08	27.86	25.71	22.79	19.53	16.45	14.07	12.69	12.31	12.58	12.94	12.84	11.96	10.26	7.92	5.23	2.37	-0.6	-3.71	-7.01	-10.46	-14.09	-17.9	-22.09	-26.95	-32.62	-38.84	-44.77	-49.15	-50.59	-48.1	-41.5	-31.44
12.87	10.86	8.64	6.2	3.45	0.38	-2.91	-6.18	-9.2	-11.88	-14.35	-16.92	-20	-23.94	-28.9	-34.67	-40.68	-45.84	-48.85	-48.5	-44.08	-35.7	-24.38	-11.77	0.38	10.65	18.41	23.66	26.89	28.65	29.34	29.08	27.86	25.71	22.79	19.53	16.45	14.07	12.69	12.31	12.58	12.94	12.84	11.96	10.26	7.92	5.23	2.37	-0.6	-3.71	-7.01	-10.46	-14.09	-17.9	-22.09	-26.95	-32.62	-38.84	-44.77	-49.15	-50.59	-48.1	-41.5	-31.44	-19.28	-6.6	5.21	15.13	22.69	27.74	30.44	31.15	30.43	28.97	27.42	26.17	25.3	24.53	23.48	21.88	19.75	17.36	15.07	13.15	11.54	10.05	8.43	6.52	4.33	1.98	-0.41	-2.8	-5.25	-7.88	-10.8	-14.09	-17.78	-21.87	-26.27	-30.86	-35.44	-39.64	-42.89	-44.47	-43.67	-39.94	-33.2	-23.94	-13.26	-2.51	7.06	14.7	20.33	24.42	27.57	30.08	31.85	32.48	31.63	29.43	26.49	23.67	21.66	20.63	20.16	19.51	18.15	15.94
-19.28	-6.6	5.21	15.13	22.69	27.74	30.44	31.15	30.43	28.97	27.42	26.17	25.3	24.53	23.48	21.88	19.75	17.36	15.07	13.15	11.54	10.05	8.43	6.52	4.33	1.98	-0.41	-2.8	-5.25	-7.88	-10.8	-14.09	-17.78	-21.87	-26.27	-30.86	-35.44	-39.64	-42.89	-44.47	-43.67	-39.94	-33.2	-23.94	-13.26	-2.51	7.06	14.7	20.33	24.42	27.57	30.08	31.85	32.48	31.63	29.43	26.49	23.67	21.66	20.63	20.16	19.51	18.15	15.94	13.28	10.79	8.98	7.98	7.47	6.82	5.43	2.98	-0.45	-4.36	-8.15	-11.42	-14.16	-16.75	-19.71	-23.4	-27.86	-32.77	-37.6	-41.68	-44.32	-44.85	-42.72	-37.71	-30.02	-20.43	-10.1	-0.25	8.23	14.96	19.99	23.66	26.26	27.9	28.6	28.35	27.21	25.34	23.06	20.71	18.51	16.56	14.76	12.97	11.19	9.56	8.26	7.37	6.71	5.9	4.58	2.6	0.15	-2.36	-4.56	-6.36	-7.92	-9.54	-11.44	-13.69	-16.28	-19.27	-22.72	-26.56
13.28	10.79	8.98	7.98	7.47	6.82	5.43	2.98	-0.45	-4.36	-8.15	-11.42	-14.16	-16.75	-19.71	-23.4	-27.86	-32.77	-37.6	-41.68	-44.32	-44.85	-42.72	-37.71	-30.02	-20.43	-10.1	-0.25	8.23	14.96	19.99	23.66	26.26	27.9	28.6	28.35	27.21	25.34	23.06	20.71	18.51	16.56	14.76	12.97	11.19	9.56	8.26	7.37	6.71	5.9	4.58	2.6	0.15	-2.36	-4.56	-6.36	-7.92	-9.54	-11.44	-13.69	-16.28	-19.27	-22.72	-26.56	-30.38	-33.44	-34.77	-33.6	-29.59	-23.13	-15.09	-6.6	1.38	8.24	13.83	18.27	21.71	24.27	25.92	26.56	26.12	24.71	22.57	20.08	17.61	15.42	13.68	12.38	11.44	10.72	10	9.09	7.79	6.02	3.81	1.27	-1.42	-4.03	-6.35	-8.32	-9.98	-11.59	-13.51	-16.07	-19.37	-23.2	-27.06	-30.28	-32.3	-32.78	-31.62	-28.88	-24.74	-19.47	-13.47	-7.33	-1.58	3.35	7.34	10.41	12.68	14.11	14.56	13.87	12.05	9.47	6.77	4.68
-30.38	-33.44	-34.77	-33.6	-29.59	-23.13	-15.09	-6.6	1.38	8.24	13.83	18.27	21.71	24.27	25.92	26.56	26.12	24.71	22.57	20.08	17.61	15.42	13.68	12.38	11.44	10.72	10	9.09	7.79	6.02	3.81	1.27	-1.42	-4.03	-6.35	-8.32	-9.98	-11.59	-13.51	-16.07	-19.37	-23.2	-27.06	-30.28	-32.3	-32.78	-31.62	-28.88	-24.74	-19.47	-13.47	-7.33	-1.58	3.35	7.34	10.41	12.68	14.11	14.56	13.87	12.05	9.47	6.77	4.68	3.71	3.98	5.18	6.72	7.91	8.32	7.78	6.51	4.83	3.1	1.54	0.17	-0.97	-1.93	-2.75	-3.58	-4.78	-6.78	-9.95	-14.27	-19.24	-23.9	-27.2	-28.34	-27.06	-23.58	-18.43	-12.19	-5.38	1.54	8.08	13.67	17.73	19.91	20.25	19.25	17.63	16.01	14.68	13.55	12.39	11.05	9.64	8.38	7.42	6.57	5.49	3.83	1.54	-1.03	-3.27	-4.65	-5.02	-4.71	-4.43	-4.97	-6.98	-10.75	-16.08	-22.31	-28.39	-33	-34.93	-33.43
3.71	3.98	5.18	6.72	7.91	8.32	7.78	6.51	4.83	3.1	1.54	0.17	-0.97	-1.93	-2.75	-3.58	-4.78	-6.78	-9.95	-14.27	-19.24	-23.9	-27.2	-28.34	-27.06	-23.58	-18.43	-12.19	-5.38	1.54	8.08	13.67	17.73	19.91	20.25	19.25	17.63	16.01	14.68	13.55	12.39	11.05	9.64	8.38	7.42	6.57	5.49	3.83	1.54	-1.03	-3.27	-4.65	-5.02	-4.71	-4.43	-4.97	-6.98	-10.75	-16.08	-22.31	-28.39	-33	-34.93	-33.43	-28.55	-21.14	-12.61	-4.4	2.38	7.23	10.16	11.54	11.85	11.57	11.07	10.54	10.05	9.48	8.67	7.54	6.17	4.8	3.67	2.87	2.22	1.41	0.2	-1.4	-3.15	-4.78	-6.06	-7.08	-8.12	-9.54	-11.57	-14.3	-17.61	-21.27	-25.02	-28.52	-31.4	-33.19	-33.38	-31.54	-27.55	-21.65	-14.52	-7.1	-0.27	5.41	9.81	13.14	15.63	17.25	17.79	16.99	14.99	12.29	9.75	8.09	7.59	7.92	8.41	8.38	7.52	5.95	4.07	2.28
-28.55	-21.14	-12.61	-4.4	2.38	7.23	10.16	11.54	11.85	11.57	11.07	10.54	10.05	9.48	8.67	7.54	6.17	4.8	3.67	2.87	2.22	1.41	0.2	-1.4	-3.15	-4.78	-6.06	-7.08	-8.12	-9.54	-11.57	-14.3	-17.61	-21.27	-25.02	-28.52	-31.4	-33.19	-33.38	-31.54	-27.55	-21.65	-14.52	-7.1	-0.27	5.41	9.81	13.14	15.63	17.25	17.79	16.99	14.99	12.29	9.75	8.09	7.59	7.92	8.41	8.38	7.52	5.95	4.07	2.28	0.84	-0.26	-1.17	-2.1	-3.26	-4.87	-7.18	-10.48	-14.89	-20.33	-26.33	-32.03	-36.36	-38.29	-37.2	-32.98	-26.17	-17.65	-8.48	0.37	8.19	14.57	19.37	22.64	24.53	25.25	25	24	22.52	20.87	19.36	18.17	17.28	16.48	15.42	13.86	11.82	9.5	7.28	5.36	3.73	2.12	0.23	-2.18	-5.12	-8.57	-12.43	-16.75	-21.54	-26.7	-31.84	-36.18	-38.78	-38.76	-35.65	-29.59	-21.35	-12.16	-3.28	4.32	10.24	14.52	17.59	19.97
0.84	-0.26	-1.17	-2.1	-3.26	-4.87	-7.18	-10.48	-14.89	-20.33	-26.33	-32.03	-36.36	-38.29	-37.2	-32.98	-26.17	-17.65	-8.48	0.37	8.19	14.57	19.37	22.64	24.53	25.25	25	24	22.52	20.87	19.36	18.17	17.28	16.48	15.42	13.86	11.82	9.5	7.28	5.36	3.73	2.12	0.23	-2.18	-5.12	-8.57	-12.43	-16.75	-21.54	-26.7	-31.84	-36.18	-38.78	-38.76	-35.65	-29.59	-21.35	-12.16	-3.28	4.32	10.24	14.52	17.59	19.97	21.99	23.76	25.11	25.69	25.2	23.53	20.81	17.49	14.2	11.52	9.83	9.08	8.93	8.89	8.5	7.51	5.94	3.95	1.74	-0.54	-2.86	-5.33	-8.24	-11.95	-16.77	-22.55	-28.63	-33.87	-36.9	-36.7	-32.98	-26.35	-17.97	-9.1	-0.61	7.13	14.1	20.31	25.51	29.3	31.37	31.8	31.05	29.87	28.85	28.25	27.85	27.19	25.84	23.66	20.89	18.07	15.81	14.49	14.01	13.85	13.15	11.22	7.83	3.3	-1.65	-6.23	-9.92	-12.65
21.99	23.76	25.11	25.69	25.2	23.53	20.81	17.49	14.2	11.52	9.83	9.08	8.93	8.89	8.5	7.51	5.94	3.95	1.74	-0.54	-2.86	-5.33	-8.24	-11.95	-16.77	-22.55	-28.63	-33.87	-36.9	-36.7	-32.98	-26.35	-17.97	-9.1	-0.61	7.13	14.1	20.31	25.51	29.3	31.37	31.8	31.05	29.87	28.85	28.25	27.85	27.19	25.84	23.66	20.89	18.07	15.81	14.49	14.01	13.85	13.15	11.22	7.83	3.3	-1.65	-6.23	-9.92	-12.65	-14.76	-16.82	-19.36	-22.78	-27.09	-31.91	-36.41	-39.49	-40.09	-37.48	-31.59	-23.06	-13.05	-2.9	6.3	13.88	19.62	23.64	26.18	27.54	27.93	27.46	26.29	24.63	22.75	20.98	19.58	18.69	18.25	18.08	17.99	17.78	17.26	16.4	15.21	13.74	11.95	9.79	7.15	4.04	0.64	-2.74	-5.82	-8.55	-11.18	-14.15	-17.9	-22.61	-28	-33.34	-37.7	-40.06	-39.69	-36.35	-30.34	-22.54	-14.05	-6.01	0.86	6.41	10.92	14.82	18.39	21.59
-14.76	-16.82	-19.36	-22.78	-27.09	-31.91	-36.41	-39.49	-40.09	-37.48	-31.59	-23.06	-13.05	-2.9	6.3	13.88	19.62	23.64	26.18	27.54	27.93	27.46	26.29	24.63	22.75	20.98	19.58	18.69	18.25	18.08	17.99	17.78	17.26	16.4	15.21	13.74	11.95	9.79	7.15	4.04	0.64	-2.74	-5.82	-8.55	-11.18	-14.15	-17.9	-22.61	-28	-33.34	-37.7	-40.06	-39.69	-36.35	-30.34	-22.54	-14.05	-6.01	0.86	6.41	10.92	14.82	18.39	21.59	24.16	25.91	26.87	27.33	27.57	27.65	27.32	26.25	24.3	21.76	19.27	17.43	16.46	16.06	15.5	14.11	11.6	8.3	4.78	1.65	-0.93	-3.1	-5.25	-7.76	-10.73	-14.09	-17.73	-21.6	-25.73	-30.09	-34.35	-37.84	-39.63	-38.89	-35.31	-29.26	-21.73	-13.88	-6.64	-0.33	5.2	10.32	15.25	19.89	23.83	26.75	28.47	29.09	28.8	27.81	26.2	24.18	22.01	20.11	18.83	18.22	18.06	17.88	17.36	16.36	15.08	13.72	12.4	11.09
24.16	25.91	26.87	27.33	27.57	27.65	27.32	26.25	24.3	21.76	19.27	17.43	16.46	16.06	15.5	14.11	11.6	8.3	4.78	1.65	-0.93	-3.1	-5.25	-7.76	-10.73	-14.09	-17.73	-21.6	-25.73	-30.09	-34.35	-37.84	-39.63	-38.89	-35.31	-29.26	-21.73	-13.88	-6.64	-0.33	5.2	10.32	15.25	19.89	23.83	26.75	28.47	29.09	28.8	27.81	26.2	24.18	22.01	20.11	18.83	18.22	18.06	17.88	17.36	16.36	15.08	13.72	12.4	11.09	9.64	7.93	5.91	3.58	0.85	-2.33	-5.99	-10.03	-14.19	-18.31	-22.36	-26.45	-30.71	-35.03	-38.83	-41.2	-41.23	-38.37	-32.78	-25.19	-16.7	-8.3	-0.66	5.95	11.58	16.3	20.15	23.09	25.09	26.2	26.54	26.26	25.5	24.26	22.57	20.56	18.41	16.46	14.94	14	13.61	13.65	13.86	13.98	13.7	12.72	10.8	7.83	3.91	-0.55	-4.93	-8.53	-10.9	-11.97	-12.24	-12.53	-13.72	-16.32	-20.37	-25.27	-30.06	-33.71	-35.35	-34.63
9.64	7.93	5.91	3.58	0.85	-2.33	-5.99	-10.03	-14.19	-18.31	-22.36	-26.45	-30.71	-35.03	-38.83	-41.2	-41.23	-38.37	-32.78	-25.19	-16.7	-8.3	-0.66	5.95	11.58	16.3	20.15	23.09	25.09	26.2	26.54	26.26	25.5	24.26	22.57	20.56	18.41	16.46	14.94	14	13.61	13.65	13.86	13.98	13.7	12.72	10.8	7.83	3.91	-0.55	-4.93	-8.53	-10.9	-11.97	-12.24	-12.53	-13.72	-16.32	-20.37	-25.27	-30.06	-33.71	-35.35	-34.63	-31.63	-26.92	-21.23	-15.31	-9.66	-4.51	0.11	4.28	8.05	11.44	14.48	17.19	19.53	21.41	22.64	23.09	22.75	21.81	20.5	19.01	17.39	15.69	14.08	12.82	12.12	11.94	11.77	10.86	8.67	5.2	1.19	-2.3	-4.47	-5.21	-5.15	-5.28	-6.42	-8.89	-12.45	-16.6	-20.91	-25	-28.6	-31.28	-32.52	-31.75	-28.76	-23.83	-17.68	-11.25	-5.35	-0.49	3.3	6.19	8.42	10.06	11.03	11.29	10.92	10.19	9.45	8.93	8.66	8.48
-31.63	-26.92	-21.23	-15.31	-9.66	-4.51	0.11	4.28	8.05	11.44	14.48	17.19	19.53	21.41	22.64	23.09	22.75	21.81	20.5	19.01	17.39	15.69	14.08	12.82	12.12	11.94	11.77	10.86	8.67	5.2	1.19	-2.3	-4.47	-5.21	-5.15	-5.28	-6.42	-8.89	-12.45	-16.6	-20.91	-25	-28.6	-31.28	-32.52	-31.75	-28.76	-23.83	-17.68	-11.25	-5.35	-0.49	3.3	6.19	8.42	10.06	11.03	11.29	10.92	10.19	9.45	8.93	8.66	8.48	8.24	7.83	7.29	6.71	6.12	5.53	4.94	4.37	3.86	3.32	2.53	1.28	-0.59	-2.96	-5.5	-7.87	-9.91	-11.66	-13.26	-14.9	-16.65	-18.54	-20.6	-22.82	-25	-26.62	-26.9	-25.12	-21.08	-15.31	-9.01	-3.44	0.66	3.36	5.32	7.3	9.56	11.76	13.14	13.06	11.46	8.83	6	3.64	1.98	0.82	-0.28	-1.59	-3.19	-4.94	-6.68	-8.28	-9.64	-10.59	-10.89	-10.34	-8.78	-6.32	-3.22	0.08	3.12	5.54	7.01	7.26
8.24	7.83	7.29	6.71	6.12	5.53	4.94	4.37	3.86	3.32	2.53	1.28	-0.59	-2.96	-5.5	-7.87	-9.91	-11.66	-13.26	-14.9	-16.65	-18.54	-20.6	-22.82	-25	-26.62	-26.9	-25.12	-21.08	-15.31	-9.01	-3.44	0.66	3.36	5.32	7.3	9.56	11.76	13.14	13.06	11.46	8.83	6	3.64	1.98	0.82	-0.28	-1.59	-3.19	-4.94	-6.68	-8.28	-9.64	-10.59	-10.89	-10.34	-8.78	-6.32	-3.22	0.08	3.12	5.54	7.01	7.26	6.14	3.71	0.27	-3.55	-6.98	-9.23	-9.67	-8.04	-4.47	0.46	5.86	10.67	14.09	15.79	16	15.4	14.72	14.41	14.54	14.93	15.31	15.66	16.12	16.68	17.13	17	15.86	13.62	10.7	7.8	5.62	4.38	3.75	3.14	2.02	0.27	-1.81	-3.84	-5.58	-7.17	-8.92	-11.21	-14.13	-17.51	-20.97	-24.03	-26.26	-27.26	-26.79	-24.65	-20.91	-15.85	-10.08	-4.37	0.51	4.14	6.49	7.93	8.97	10.02	11.15	12.22	13.01	13.51
6.14	3.71	0.27	-3.55	-6.98	-9.23	-9.67	-8.04	-4.47	0.46	5.86	10.67	14.09	15.79	16	15.4	14.72	14.41	14.54	14.93	15.31	15.66	16.12	16.68	17.13	17	15.86	13.62	10.7	7.8	5.62	4.38	3.75	3.14	2.02	0.27	-1.81	-3.84	-5.58	-7.17	-8.92	-11.21	-14.13	-17.51	-20.97	-24.03	-26.26	-27.26	-26.79	-24.65	-20.91	-15.85	-10.08	-4.37	0.51	4.14	6.49	7.93	8.97	10.02	11.15	12.22	13.01	13.51	13.85	14.28	14.85	15.27	15.13	14.08	12.19	9.88	7.78	6.23	5.19	4.22	2.85	0.87	-1.65	-4.36	-6.91	-9.05	-10.74	-12.02	-13.11	-14.21	-15.65	-17.61	-20.09	-22.74	-24.88	-25.71	-24.61	-21.46	-16.61	-10.79	-4.75	1.03	6.36	11.24	15.59	19.17	21.56	22.42	21.73	19.87	17.5	15.26	13.53	12.28	11.27	10.25	9.23	8.39	7.91	7.82	7.8	7.41	6.28	4.37	1.89	-0.79	-3.33	-5.53	-7.38	-9.01	-10.56	-12.18
13.85	14.28	14.85	15.27	15.13	14.08	12.19	9.88	7.78	6.23	5.19	4.22	2.85	0.87	-1.65	-4.36	-6.91	-9.05	-10.74	-12.02	-13.11	-14.21	-15.65	-17.61	-20.09	-22.74	-24.88	-25.71	-24.61	-21.46	-16.61	-10.79	-4.75	1.03	6.36	11.24	15.59	19.17	21.56	22.42	21.73	19.87	17.5	15.26	13.53	12.28	11.27	10.25	9.23	8.39	7.91	7.82	7.8	7.41	6.28	4.37	1.89	-0.79	-3.33	-5.53	-7.38	-9.01	-10.56	-12.18	-14	-16.09	-18.44	-20.92	-23.25	-24.96	-25.52	-24.4	-21.3	-16.35	-10.19	-3.81	1.81	6.02	8.82	10.69	12.18	13.52	14.45	14.42	13.08	10.63	7.83	5.54	4.39	4.39	5.04	5.69	5.86	5.43	4.55	3.44	2.27	1	-0.38	-1.89	-3.44	-4.9	-6.18	-7.3	-8.45	-9.84	-11.69	-13.99	-16.41	-18.33	-19.08	-18.14	-15.51	-11.69	-7.33	-3.05	0.83	4.4	7.78	10.99	13.78	15.76	16.56	16.14	14.71	12.7	10.55	8.56
-14	-16.09	-18.44	-20.92	-23.25	-24.96	-25.52	-24.4	-21.3	-16.35	-10.19	-3.81	1.81	6.02	8.82	10.69	12.18	13.52	14.45	14.42	13.08	10.63	7.83	5.54	4.39	4.39	5.04	5.69	5.86	5.43	4.55	3.44	2.27	1	-0.38	-1.89	-3.44	-4.9	-6.18	-7.3	-8.45	-9.84	-11.69	-13.99	-16.41	-18.33	-19.08	-18.14	-15.51	-11.69	-7.33	-3.05	0.83	4.4	7.78	10.99	13.78	15.76	16.56	16.14	14.71	12.7	10.55	8.56	6.92	5.65	4.74	4.16	3.88	3.77	3.67	3.31	2.43	0.91	-1.26	-3.79	-6.31	-8.42	-9.93	-10.94	-11.76	-12.83	-14.44	-16.68	-19.38	-22.09	-24.26	-25.32	-24.85	-22.7	-18.98	-14.03	-8.3	-2.3	3.48	8.61	12.72	15.58	17.13	17.55	17.11	16.11	14.81	13.33	11.75	10.21	8.86	7.92	7.41	7.19	6.96	6.41	5.4	4.06	2.59	1.09	-0.44	-2.15	-4.15	-6.43	-8.86	-11.34	-13.86	-16.55	-19.37	-22.06	-24.04	-24.66
6.92	5.65	4.74	4.16	3.88	3.77	3.67	3.31	2.43	0.91	-1.26	-3.79	-6.31	-8.42	-9.93	-10.94	-11.76	-12.83	-14.44	-16.68	-19.38	-22.09	-24.26	-25.32	-24.85	-22.7	-18.98	-14.03	-8.3	-2.3	3.48	8.61	12.72	15.58	17.13	17.55	17.11	16.11	14.81	13.33	11.75	10.21	8.86	7.92	7.41	7.19	6.96	6.41	5.4	4.06	2.59	1.09	-0.44	-2.15	-4.15	-6.43	-8.86	-11.34	-13.86	-16.55	-19.37	-22.06	-24.04	-24.66	-23.42	-20.36	-15.88	-10.61	-5.07	0.44	5.66	10.25	13.75	15.72	15.99	14.79	12.74	10.47	8.48	6.93	5.75	4.83	4.2	3.86	3.83	3.92	3.84	3.4	2.59	1.7	1.09	0.97	1.18	1.26	0.6	-1.25	-4.31	-8.2	-12.29	-15.95	-18.8	-20.71	-21.74	-21.91	-21.1	-19.08	-15.7	-11.01	-5.39	0.68	6.63	11.98	16.35	19.45	21.17	21.55	20.92	19.7	18.27	16.82	15.34	13.76	12.08	10.5	9.36	8.91	9.14	9.68
-23.42	-20.36	-15.88	-10.61	-5.07	0.44	5.66	10.25	13.75	15.72	15.99	14.79	12.74	10.47	8.48	6.93	5.75	4.83	4.2	3.86	3.83	3.92	3.84	3.4	2.59	1.7	1.09	0.97	1.18	1.26	0.6	-1.25	-4.31	-8.2	-12.29	-15.95	-18.8	-20.71	-21.74	-21.91	-21.1	-19.08	-15.7	-11.01	-5.39	0.68	6.63	11.98	16.35	19.45	21.17	21.55	20.92	19.7	18.27	16.82	15.34	13.76	12.08	10.5	9.36	8.91	9.14	9.68	9.97	9.53	8.09	5.79	3.01	0.2	-2.31	-4.43	-6.38	-8.42	-10.82	-13.62	-16.58	-19.27	-21.2	-22.08	-21.82	-20.46	-18.1	-14.76	-10.41	-5.24	0.36	5.71	10.12	13.13	14.71	15.18	15.05	14.66	14.1	13.21	11.82	9.91	7.71	5.67	4.18	3.53	3.72	4.55	5.57	6.31	6.37	5.52	3.79	1.37	-1.44	-4.42	-7.4	-10.3	-13.05	-15.6	-17.97	-20.19	-22.33	-24.28	-25.88	-26.78	-26.65	-25.15	-22.08	-17.43	-11.39	-4.56
9.97	9.53	8.09	5.79	3.01	0.2	-2.31	-4.43	-6.38	-8.42	-10.82	-13.62	-16.58	-19.27	-21.2	-22.08	-21.82	-20.46	-18.1	-14.76	-10.41	-5.24	0.36	5.71	10.12	13.13	14.71	15.18	15.05	14.66	14.1	13.21	11.82	9.91	7.71	5.67	4.18	3.53	3.72	4.55	5.57	6.31	6.37	5.52	3.79	1.37	-1.44	-4.42	-7.4	-10.3	-13.05	-15.6	-17.97	-20.19	-22.33	-24.28	-25.88	-26.78	-26.65	-25.15	-22.08	-17.43	-11.39	-4.56	2.34	8.44	13.23	16.57	18.72	20.1	20.93	21.24	20.82	19.57	17.64	15.46	13.54	12.19	11.43	11.05	10.79	10.42	9.86	9.04	7.95	6.61	5.08	3.43	1.77	0.15	-1.49	-3.22	-5.18	-7.5	-10.33	-13.74	-17.68	-21.85	-25.73	-28.61	-29.81	-28.91	-25.91	-21.22	-15.52	-9.5	-3.69	1.56	6.06	9.78	12.82	15.28	17.28	18.77	19.6	19.63	18.87	17.63	16.42	15.75	15.84	16.53	17.36	17.79	17.51	16.5	15	13.3
2.34	8.44	13.23	16.57	18.72	20.1	20.93	21.24	20.82	19.57	17.64	15.46	13.54	12.19	11.43	11.05	10.79	10.42	9.86	9.04	7.95	6.61	5.08	3.43	1.77	0.15	-1.49	-3.22	-5.18	-7.5	-10.33	-13.74	-17.68	-21.85	-25.73	-28.61	-29.81	-28.91	-25.91	-21.22	-15.52	-9.5	-3.69	1.56	6.06	9.78	12.82	15.28	17.28	18.77	19.6	19.63	18.87	17.63	16.42	15.75	15.84	16.53	17.36	17.79	17.51	16.5	15	13.3	11.58	9.84	7.96	5.79	3.24	0.35	-2.66	-5.45	-7.76	-9.47	-10.84	-12.36	-14.6	-17.79	-21.74	-25.73	-28.82	-30.14	-29.26	-26.29	-21.8	-16.49	-10.91	-5.39	-0.07	4.95	9.35	12.7	14.6	14.94	14.07	12.79	11.92	12.01	13.06	14.56	15.78	16.26	15.97	15.3	14.86	15.03	15.79	16.68	17.03	16.34	14.49	11.72	8.52	5.34	2.46	-0.01	-2.13	-3.91	-5.41	-6.79	-8.37	-10.54	-13.68	-17.9	-22.85	-27.75	-31.6	-33.48
11.58	9.84	7.96	5.79	3.24	0.35	-2.66	-5.45	-7.76	-9.47	-10.84	-12.36	-14.6	-17.79	-21.74	-25.73	-28.82	-30.14	-29.26	-26.29	-21.8	-16.49	-10.91	-5.39	-0.07	4.95	9.35	12.7	14.6	14.94	14.07	12.79	11.92	12.01	13.06	14.56	15.78	16.26	15.97	15.3	14.86	15.03	15.79	16.68	17.03	16.34	14.49	11.72	8.52	5.34	2.46	-0.01	-2.13	-3.91	-5.41	-6.79	-8.37	-10.54	-13.68	-17.9	-22.85	-27.75	-31.6	-33.48	-32.9	-29.9	-24.97	-18.94	-12.65	-6.8	-1.83	2.18	5.4	8.18	10.84	13.54	16.19	18.49	20.04	20.5	19.8	18.13	15.97	13.88	12.29	11.34	10.97	10.94	11.04	11.18	11.34	11.49	11.41	10.85	9.61	7.73	5.53	3.32	1.22	-0.98	-3.66	-7.06	-10.92	-14.68	-17.7	-19.69	-20.86	-21.78	-22.9	-24.27	-25.37	-25.38	-23.63	-19.89	-14.59	-8.51	-2.41	3.13	8	12.26	15.97	18.99	21.05	21.87	21.5	20.29	18.83	17.62
-32.9	-29.9	-24.97	-18.94	-12.65	-6.8	-1.83	2.18	5.4	8.18	10.84	13.54	16.19	18.49	20.04	20.5	19.8	18.13	15.97	13.88	12.29	11.34	10.97	10.94	11.04	11.18	11.34	11.49	11.41	10.85	9.61	7.73	5.53	3.32	1.22	-0.98	-3.66	-7.06	-10.92	-14.68	-17.7	-19.69	-20.86	-21.78	-22.9	-24.27	-25.37	-25.38	-23.63	-19.89	-14.59	-8.51	-2.41	3.13	8	12.26	15.97	18.99	21.05	21.87	21.5	20.29	18.83	17.62	16.88	16.45	16.03	15.43	14.58	13.54	12.42	11.21	9.89	8.51	7.23	6.21	5.61	5.31	4.97	4.14	2.41	-0.33	-3.87	-7.71	-11.24	-14.02	-15.98	-17.38	-18.66	-20.2	-21.98	-23.63	-24.47	-23.93	-21.79	-18.35	-14.17	-9.88	-5.89	-2.23	1.3	4.93	8.67	12.19	14.99	16.56	16.79	15.95	14.69	13.63	13.1	13.05	13.16	13.22	13.23	13.43	13.96	14.74	15.37	15.37	14.43	12.55	10.06	7.35	4.63	1.93	-0.86	-3.87
16.88	16.45	16.03	15.43	14.58	13.54	12.42	11.21	9.89	8.51	7.23	6.21	5.61	5.31	4.97	4.14	2.41	-0.33	-3.87	-7.71	-11.24	-14.02	-15.98	-17.38	-18.66	-20.2	-21.98	-23.63	-24.47	-23.93	-21.79	-18.35	-14.17	-9.88	-5.89	-2.23	1.3	4.93	8.67	12.19	14.99	16.56	16.79	15.95	14.69	13.63	13.1	13.05	13.16	13.22	13.23	13.43	13.96	14.74	15.37	15.37	14.43	12.55	10.06	7.35	4.63	1.93	-0.86	-3.87	-7.05	-10.26	-13.38	-16.3	-19.07	-21.69	-24.09	-25.97	-26.91	-26.46	-24.27	-20.38	-15.1	-9.02	-2.82	2.97	8.04	12.3	15.81	18.63	20.77	22.21	22.78	22.34	20.8	18.24	14.97	11.5	8.48	6.39	5.46	5.53	6.13	6.72	6.75	5.97	4.33	2.02	-0.58	-2.98	-4.7	-5.47	-5.37	-4.97	-5.08	-6.5	-9.62	-14.25	-19.6	-24.68	-28.53	-30.52	-30.33	-27.87	-23.3	-17.09	-9.99	-3	2.98	7.39	10.29	12.09	13.29	14.19
-7.05	-10.26	-13.38	-16.3	-19.07	-21.69	-24.09	-25.97	-26.91	-26.46	-24.27	-20.38	-15.1	-9.02	-2.82	2.97	8.04	12.3	15.81	18.63	20.77	22.21	22.78	22.34	20.8	18.24	14.97	11.5	8.48	6.39	5.46	5.53	6.13	6.72	6.75	5.97	4.33	2.02	-0.58	-2.98	-4.7	-5.47	-5.37	-4.97	-5.08	-6.5	-9.62	-14.25	-19.6	-24.68	-28.53	-30.52	-30.33	-27.87	-23.3	-17.09	-9.99	-3	2.98	7.39	10.29	12.09	13.29	14.19	14.8	14.96	14.64	13.94	13.12	12.34	11.58	10.69	9.54	8.15	6.77	5.66	4.98	4.7	4.55	4.17	3.27	1.63	-0.8	-3.86	-7.21	-10.41	-12.96	-14.58	-15.35	-15.65	-15.93	-16.46	-17.07	-17.22	-16.32	-14.05	-10.53	-6.35	-2.22	1.24	3.81	5.66	7.14	8.56	10.04	11.45	12.59	13.3	13.55	13.38	12.9	12.12	11.06	9.78	8.46	7.37	6.75	6.58	6.58	6.27	5.31	3.71	1.83	0.22	-0.77	-1.13	-1.23	-1.67
14.8	14.96	14.64	13.94	13.12	12.34	11.58	10.69	9.54	8.15	6.77	5.66	4.98	4.7	4.55	4.17	3.27	1.63	-0.8	-3.86	-7.21	-10.41	-12.96	-14.58	-15.35	-15.65	-15.93	-16.46	-17.07	-17.22	-16.32	-14.05	-10.53	-6.35	-2.22	1.24	3.81	5.66	7.14	8.56	10.04	11.45	12.59	13.3	13.55	13.38	12.9	12.12	11.06	9.78	8.46	7.37	6.75	6.58	6.58	6.27	5.31	3.71	1.83	0.22	-0.77	-1.13	-1.23	-1.67	-3.01	-5.51	-8.99	-12.9	-16.45	-18.91	-19.84	-19.14	-17.03	-13.91	-10.22	-6.33	-2.49	1.07	4.1	6.4	7.82	8.35	8.22	7.7	7.08	6.53	6.03	5.43	4.63	3.59	2.44	1.41	0.63	0.09	-0.38	-0.93	-1.54	-2.01	-2.09	-1.72	-1.09	-0.61	-0.69	-1.43	-2.71	-4.32	-6.09	-8.03	-10.3	-12.96	-15.78	-18.23	-19.72	-19.77	-18.31	-15.58	-12.04	-8.15	-4.23	-0.52	2.81	5.49	7.33	8.27	8.55	8.49	8.31	7.97
-3.01	-5.51	-8.99	-12.9	-16.45	-18.91	-19.84	-19.14	-17.03	-13.91	-10.22	-6.33	-2.49	1.07	4.1	6.4	7.82	8.35	8.22	7.7	7.08	6.53	6.03	5.43	4.63	3.59	2.44	1.41	0.63	0.09	-0.38	-0.93	-1.54	-2.01	-2.09	-1.72	-1.09	-0.61	-0.69	-1.43	-2.71	-4.32	-6.09	-8.03	-10.3	-12.96	-15.78	-18.23	-19.72	-19.77	-18.31	-15.58	-12.04	-8.15	-4.23	-0.52	2.81	5.49	7.33	8.27	8.55	8.49	8.31	7.97	7.24	5.92	4.13	2.39	1.4	1.62	2.95	4.73	6.09	6.35	5.36	3.49	1.37	-0.42	-1.62	-2.31	-2.82	-3.5	-4.71	-6.54	-8.79	-11.01	-12.5	-12.66	-11.17	-8.25	-4.56	-0.98	1.87	3.86	5.24	6.46	7.79	9.13	10.05	10.12	9.14	7.39	5.45	3.89	2.97	2.51	2.08	1.22	-0.19	-1.97	-3.71	-5.01	-5.71	-5.93	-5.96	-6.1	-6.62	-7.63	-9.25	-11.5	-14.29	-17.35	-20.12	-21.91	-22.21	-20.78	-17.78	-13.74
7.24	5.92	4.13	2.39	1.4	1.62	2.95	4.73	6.09	6.35	5.36	3.49	1.37	-0.42	-1.62	-2.31	-2.82	-3.5	-4.71	-6.54	-8.79	-11.01	-12.5	-12.66	-11.17	-8.25	-4.56	-0.98	1.87	3.86	5.24	6.46	7.79	9.13	10.05	10.12	9.14	7.39	5.45	3.89	2.97	2.51	2.08	1.22	-0.19	-1.97	-3.71	-5.01	-5.71	-5.93	-5.96	-6.1	-6.62	-7.63	-9.25	-11.5	-14.29	-17.35	-20.12	-21.91	-22.21	-20.78	-17.78	-13.74	-9.26	-4.88	-0.93	2.46	5.27	7.49	9.09	10.03	10.23	9.7	8.45	6.54	4.21	1.83	-0.23	-1.59	-2.15	-2.02	-1.44	-0.63	0.19	0.91	1.25	0.96	-0.2	-2.23	-4.87	-7.72	-10.5	-13.16	-15.91	-18.88	-21.74	-23.72	-23.91	-21.74	-17.47	-12.04	-6.69	-2.27	1.05	3.74	6.43	9.37	12.25	14.41	15.32	14.86	13.5	11.96	10.8	10.14	9.73	9.18	8.28	7.08	5.78	4.55	3.31	1.78	-0.29	-2.9	-5.69	-8.21
-9.26	-4.88	-0.93	2.46	5.27	7.49	9.09	10.03	10.23	9.7	8.45	6.54	4.21	1.83	-0.23	-1.59	-2.15	-2.02	-1.44	-0.63	0.19	0.91	1.25	0.96	-0.2	-2.23	-4.87	-7.72	-10.5	-13.16	-15.91	-18.88	-21.74	-23.72	-23.91	-21.74	-17.47	-12.04	-6.69	-2.27	1.05	3.74	6.43	9.37	12.25	14.41	15.32	14.86	13.5	11.96	10.8	10.14	9.73	9.18	8.28	7.08	5.78	4.55	3.31	1.78	-0.29	-2.9	-5.69	-8.21	-10.08	-11.32	-12.29	-13.56	-15.59	-18.45	-21.72	-24.66	-26.5	-26.78	-25.42	-22.7	-19.07	-14.92	-10.54	-6.09	-1.69	2.57	6.61	10.35	13.64	16.26	18.03	18.8	18.59	17.59	16.15	14.59	13.21	12.1	11.34	10.98	11.12	11.75	12.66	13.42	13.53	12.63	10.67	7.95	4.87	1.84	-1.02	-3.81	-6.69	-9.74	-12.87	-15.93	-18.76	-21.32	-23.56	-25.29	-26.14	-25.65	-23.52	-19.87	-15.17	-10.1	-5.18	-0.63	3.66	7.78	11.68	15.15
-10.08	-11.32	-12.29	-13.56	-15.59	-18.45	-21.72	-24.66	-26.5	-26.78	-25.42	-22.7	-19.07	-14.92	-10.54	-6.09	-1.69	2.57	6.61	10.35	13.64	16.26	18.03	18.8	18.59	17.59	16.15	14.59	13.21	12.1	11.34	10.98	11.12	11.75	12.66	13.42	13.53	12.63	10.67	7.95	4.87	1.84	-1.02	-3.81	-6.69	-9.74	-12.87	-15.93	-18.76	-21.32	-23.56	-25.29	-26.14	-25.65	-23.52	-19.87	-15.17	-10.1	-5.18	-0.63	3.66	7.78	11.68	15.15	17.94	20.01	21.53	22.81	23.99	24.94	25.43	25.31	24.62	23.57	22.41	21.16	19.72	17.98	16.05	14.33	13.32	13.31	14.13	15.08	15.2	13.68	10.2	5.1	-0.74	-6.29	-10.79	-14.01	-16.07	-17.38	-18.35	-19.33	-20.65	-22.66	-25.61	-29.37	-33.26	-36.11	-36.75	-34.44	-29.28	-22.19	-14.48	-7.32	-1.39	3.24	6.92	10.11	13.12	16.06	18.73	20.71	21.56	21.03	19.26	16.8	14.42	12.83	12.42	13.14	14.67	16.52	18.22	19.32
17.94	20.01	21.53	22.81	23.99	24.94	25.43	25.31	24.62	23.57	22.41	21.16	19.72	17.98	16.05	14.33	13.32	13.31	14.13	15.08	15.2	13.68	10.2	5.1	-0.74	-6.29	-10.79	-14.01	-16.07	-17.38	-18.35	-19.33	-20.65	-22.66	-25.61	-29.37	-33.26	-36.11	-36.75	-34.44	-29.28	-22.19	-14.48	-7.32	-1.39	3.24	6.92	10.11	13.12	16.06	18.73	20.71	21.56	21.03	19.26	16.8	14.42	12.83	12.42	13.14	14.67	16.52	18.22	19.32	19.59	18.96	17.7	16.22	14.93	13.95	13.01	11.6	9.32	6.2	2.65	-0.74	-3.61	-5.99	-8.19	-10.58	-13.25	-16.12	-19	-21.76	-24.27	-26.31	-27.41	-27.07	-24.94	-21.08	-16.13	-10.87	-5.97	-1.66	2.33	6.4	10.77	15.17	18.95	21.4	22.18	21.49	20.05	18.7	18.11	18.41	19.28	20.14	20.52	20.29	19.62	18.85	18.17	17.59	16.9	15.87	14.37	12.51	10.52	8.63	7.08	5.83	4.7	3.36	1.48	-1.14	-4.48	-8.28
19.59	18.96	17.7	16.22	14.93	13.95	13.01	11.6	9.32	6.2	2.65	-0.74	-3.61	-5.99	-8.19	-10.58	-13.25	-16.12	-19	-21.76	-24.27	-26.31	-27.41	-27.07	-24.94	-21.08	-16.13	-10.87	-5.97	-1.66	2.33	6.4	10.77	15.17	18.95	21.4	22.18	21.49	20.05	18.7	18.11	18.41	19.28	20.14	20.52	20.29	19.62	18.85	18.17	17.59	16.9	15.87	14.37	12.51	10.52	8.63	7.08	5.83	4.7	3.36	1.48	-1.14	-4.48	-8.28	-12.15	-15.63	-18.39	-20.35	-21.75	-22.94	-24.26	-25.76	-27.13	-27.78	-27.04	-24.47	-20.01	-14.07	-7.36	-0.66	5.34	10.17	13.66	15.8	16.81	17.1	17.15	17.39	17.99	18.79	19.41	19.43	18.67	17.22	15.49	13.9	12.73	11.98	11.46	10.94	10.28	9.45	8.45	7.22	5.66	3.7	1.41	-1.03	-3.38	-5.56	-7.56	-9.56	-11.72	-14.19	-16.93	-19.83	-22.67	-25.15	-26.98	-27.82	-27.42	-25.69	-22.71	-18.85	-14.6	-10.42	-6.59	-3.12
-12.15	-15.63	-18.39	-20.35	-21.75	-22.94	-24.26	-25.76	-27.13	-27.78	-27.04	-24.47	-20.01	-14.07	-7.36	-0.66	5.34	10.17	13.66	15.8	16.81	17.1	17.15	17.39	17.99	18.79	19.41	19.43	18.67	17.22	15.49	13.9	12.73	11.98	11.46	10.94	10.28	9.45	8.45	7.22	5.66	3.7	1.41	-1.03	-3.38	-5.56	-7.56	-9.56	-11.72	-14.19	-16.93	-19.83	-22.67	-25.15	-26.98	-27.82	-27.42	-25.69	-22.71	-18.85	-14.6	-10.42	-6.59	-3.12	0.27	3.86	7.66	11.37	14.35	16.01	16.18	15.17	13.73	12.6	12.17	12.33	12.71	12.95	13.01	13.15	13.6	14.25	14.66	14.19	12.4	9.35	5.61	2.02	-0.7	-2.16	-2.51	-2.28	-2.17	-2.79	-4.42	-7.04	-10.38	-14.09	-17.81	-21.2	-23.91	-25.43	-25.34	-23.43	-19.91	-15.4	-10.76	-6.63	-3.16	-0.12	2.97	6.39	10.03	13.4	15.92	17.26	17.43	16.84	16	15.38	15.13	15.02	14.65	13.64	11.85	9.52	7.23	5.47
0.27	3.86	7.66	11.37	14.35	16.01	16.18	15.17	13.73	12.6	12.17	12.33	12.71	12.95	13.01	13.15	13.6	14.25	14.66	14.19	12.4	9.35	5.61	2.02	-0.7	-2.16	-2.51	-2.28	-2.17	-2.79	-4.42	-7.04	-10.38	-14.09	-17.81	-21.2	-23.91	-25.43	-25.34	-23.43	-19.91	-15.4	-10.76	-6.63	-3.16	-0.12	2.97	6.39	10.03	13.4	15.92	17.26	17.43	16.84	16	15.38	15.13	15.02	14.65	13.64	11.85	9.52	7.23	5.47	4.53	4.23	4.15	3.8	2.98	1.81	0.59	-0.41	-1.14	-1.73	-2.5	-3.75	-5.7	-8.51	-12.26	-16.81	-21.68	-26.08	-29.08	-30.01	-28.73	-25.65	-21.5	-16.89	-12.02	-6.86	-1.35	4.18	9.08	12.55	14.13	13.94	12.67	11.28	10.6	10.98	12.27	13.99	15.53	16.46	16.61	16.15	15.42	14.69	14.06	13.4	12.53	11.37	10.08	8.9	7.97	7.23	6.38	5.14	3.39	1.19	-1.3	-4	-6.96	-10.29	-14.03	-18	-21.89	-25.3
4.53	4.23	4.15	3.8	2.98	1.81	0.59	-0.41	-1.14	-1.73	-2.5	-3.75	-5.7	-8.51	-12.26	-16.81	-21.68	-26.08	-29.08	-30.01	-28.73	-25.65	-21.5	-16.89	-12.02	-6.86	-1.35	4.18	9.08	12.55	14.13	13.94	12.67	11.28	10.6	10.98	12.27	13.99	15.53	16.46	16.61	16.15	15.42	14.69	14.06	13.4	12.53	11.37	10.08	8.9	7.97	7.23	6.38	5.14	3.39	1.19	-1.3	-4	-6.96	-10.29	-14.03	-18	-21.89	-25.3	-27.84	-29.2	-29.12	-27.5	-24.38	-20.09	-15.15	-10.14	-5.48	-1.31	2.45	5.92	9.12	11.9	14.07	15.55	16.51	17.19	17.77	18.2	18.17	17.36	15.62	13.11	10.3	7.8	6.07	5.28	5.26	5.68	6.13	6.25	5.85	4.85	3.27	1.14	-1.48	-4.51	-7.86	-11.4	-15.05	-18.79	-22.65	-26.54	-30.2	-33.13	-34.74	-34.54	-32.42	-28.61	-23.64	-18.02	-12.2	-6.48	-1.09	3.67	7.55	10.33	11.99	12.65	12.6	12.2	11.83	11.84
-27.84	-29.2	-29.12	-27.5	-24.38	-20.09	-15.15	-10.14	-5.48	-1.31	2.45	5.92	9.12	11.9	14.07	15.55	16.51	17.19	17.77	18.2	18.17	17.36	15.62	13.11	10.3	7.8	6.07	5.28	5.26	5.68	6.13	6.25	5.85	4.85	3.27	1.14	-1.48	-4.51	-7.86	-11.4	-15.05	-18.79	-22.65	-26.54	-30.2	-33.13	-34.74	-34.54	-32.42	-28.61	-23.64	-18.02	-12.2	-6.48	-1.09	3.67	7.55	10.33	11.99	12.65	12.6	12.2	11.83	11.84	12.44	13.52	14.6	15.03	14.29	12.35	9.72	7.25	5.72	5.43	6.02	6.66	6.49	4.91	1.91	-2.07	-6.36	-10.32	-13.66	-16.4	-18.86	-21.33	-23.92	-26.46	-28.5	-29.62	-29.47	-27.96	-25.18	-21.38	-16.79	-11.73	-6.43	-1.18	3.81	8.33	12.14	15.06	16.94	17.74	17.61	16.93	16.12	15.47	15.12	14.89	14.54	13.85	12.76	11.38	9.91	8.6	7.58	6.82	6.11	5.12	3.54	1.17	-1.93	-5.49	-9.22	-12.91	-16.55	-20.22
12.44	13.52	14.6	15.03	14.29	12.35	9.72	7.25	5.72	5.43	6.02	6.66	6.49	4.91	1.91	-2.07	-6.36	-10.32	-13.66	-16.4	-18.86	-21.33	-23.92	-26.46	-28.5	-29.62	-29.47	-27.96	-25.18	-21.38	-16.79	-11.73	-6.43	-1.18	3.81	8.33	12.14	15.06	16.94	17.74	17.61	16.93	16.12	15.47	15.12	14.89	14.54	13.85	12.76	11.38	9.91	8.6	7.58	6.82	6.11	5.12	3.54	1.17	-1.93	-5.49	-9.22	-12.91	-16.55	-20.22	-23.84	-27.07	-29.3	-29.84	-28.3	-24.71	-19.63	-13.86	-8.14	-2.91	1.72	5.8	9.44	12.68	15.49	17.83	19.63	20.82	21.26	20.83	19.51	17.53	15.37	13.63	12.79	13.03	14.08	15.37	16.24	16.21	15.08	12.95	10.04	6.63	3.01	-0.57	-3.87	-6.68	-8.98	-11.06	-13.5	-16.94	-21.7	-27.55	-33.68	-38.9	-42.06	-42.44	-39.96	-35.11	-28.72	-21.7	-14.72	-8.22	-2.34	2.93	7.58	11.55	14.72	16.98	18.37	19.13	19.64	20.25
-23.84	-27.07	-29.3	-29.84	-28.3	-24.71	-19.63	-13.86	-8.14	-2.91	1.72	5.8	9.44	12.68	15.49	17.83	19.63	20.82	21.26	20.83	19.51	17.53	15.37	13.63	12.79	13.03	14.08	15.37	16.24	16.21	15.08	12.95	10.04	6.63	3.01	-0.57	-3.87	-6.68	-8.98	-11.06	-13.5	-16.94	-21.7	-27.55	-33.68	-38.9	-42.06	-42.44	-39.96	-35.11	-28.72	-21.7	-14.72	-8.22	-2.34	2.93	7.58	11.55	14.72	16.98	18.37	19.13	19.64	20.25	21.07	21.96	22.64	22.77	22.17	20.82	18.83	16.52	14.19	12.15	10.55	9.41	8.52	7.52	6.05	3.84	0.81	-2.87	-6.85	-10.85	-14.83	-19.02	-23.76	-29.17	-34.86	-39.82	-42.76	-42.54	-38.78	-31.96	-23.26	-14.08	-5.47	1.99	8.19	13.17	16.96	19.53	20.86	21.15	20.72	20.06	19.53	19.26	19.13	18.79	17.96	16.5	14.57	12.45	10.48	8.73	7.12	5.42	3.45	1.29	-0.84	-2.66	-4.12	-5.46	-7.15	-9.66	-13.21	-17.76
21.07	21.96	22.64	22.77	22.17	20.82	18.83	16.52	14.19	12.15	10.55	9.41	8.52	7.52	6.05	3.84	0.81	-2.87	-6.85	-10.85	-14.83	-19.02	-23.76	-29.17	-34.86	-39.82	-42.76	-42.54	-38.78	-31.96	-23.26	-14.08	-5.47	1.99	8.19	13.17	16.96	19.53	20.86	21.15	20.72	20.06	19.53	19.26	19.13	18.79	17.96	16.5	14.57	12.45	10.48	8.73	7.12	5.42	3.45	1.29	-0.84	-2.66	-4.12	-5.46	-7.15	-9.66	-13.21	-17.76	-22.96	-28.26	-33.12	-36.89	-38.96	-38.82	-36.24	-31.33	-24.65	-16.9	-8.82	-0.98	6.22	12.49	17.54	21.12	23.16	23.8	23.48	22.68	21.78	20.94	20.2	19.54	19.01	18.67	18.54	18.51	18.35	17.8	16.63	14.71	12.04	8.76	5.08	1.22	-2.64	-6.49	-10.41	-14.58	-19.05	-23.75	-28.39	-32.49	-35.47	-36.71	-35.81	-32.62	-27.33	-20.53	-13.03	-5.55	1.35	7.44	12.71	17.22	20.94	23.82	25.75	26.66	26.57	25.51	23.69	21.49
-22.96	-28.26	-33.12	-36.89	-38.96	-38.82	-36.24	-31.33	-24.65	-16.9	-8.82	-0.98	6.22	12.49	17.54	21.12	23.16	23.8	23.48	22.68	21.78	20.94	20.2	19.54	19.01	18.67	18.54	18.51	18.35	17.8	16.63	14.71	12.04	8.76	5.08	1.22	-2.64	-6.49	-10.41	-14.58	-19.05	-23.75	-28.39	-32.49	-35.47	-36.71	-35.81	-32.62	-27.33	-20.53	-13.03	-5.55	1.35	7.44	12.71	17.22	20.94	23.82	25.75	26.66	26.57	25.51	23.69	21.49	19.51	18.34	18.37	19.5	21.18	22.6	22.96	21.8	19.06	14.95	9.69	3.56	-3.12	-9.82	-15.89	-20.83	-24.51	-27.37	-30.22	-33.87	-38.63	-44.04	-48.97	-51.97	-51.89	-48.26	-41.51	-32.7	-22.99	-13.28	-3.93	5.02	13.53	21.37	28.06	33.14	36.4	38.11	38.77	38.92	38.81	38.37	37.35	35.62	33.3	30.79	28.59	27.03	26.27	26.15	26.29	26.14	25.16	23.01	19.67	15.49	11.04	6.85	3.19	-0.15	-3.67	-7.98	-13.48	-20.15
19.51	18.34	18.37	19.5	21.18	22.6	22.96	21.8	19.06	14.95	9.69	3.56	-3.12	-9.82	-15.89	-20.83	-24.51	-27.37	-30.22	-33.87	-38.63	-44.04	-48.97	-51.97	-51.89	-48.26	-41.51	-32.7	-22.99	-13.28	-3.93	5.02	13.53	21.37	28.06	33.14	36.4	38.11	38.77	38.92	38.81	38.37	37.35	35.62	33.3	30.79	28.59	27.03	26.27	26.15	26.29	26.14	25.16	23.01	19.67	15.49	11.04	6.85	3.19	-0.15	-3.67	-7.98	-13.48	-20.15	-27.54	-34.76	-40.84	-44.78	-45.88	-43.76	-38.58	-30.96	-21.84	-12.32	-3.27	4.75	11.56	17.22	21.96	25.93	29.17	31.7	33.51	34.75	35.55	36.03	36.14	35.65	34.29	31.98	29.08	26.21	24.1	23.03	22.65	22.07	20.34	16.94	12.09	6.58	1.36	-2.92	-6.16	-8.75	-11.27	-14.28	-18.14	-23	-28.8	-35.28	-41.82	-47.52	-51.39	-52.62	-50.93	-46.52	-40.06	-32.37	-24.14	-15.8	-7.61	0.3	7.74	14.42	20.08	24.48	27.64	29.74
-27.54	-34.76	-40.84	-44.78	-45.88	-43.76	-38.58	-30.96	-21.84	-12.32	-3.27	4.75	11.56	17.22	21.96	25.93	29.17	31.7	33.51	34.75	35.55	36.03	36.14	35.65	34.29	31.98	29.08	26.21	24.1	23.03	22.65	22.07	20.34	16.94	12.09	6.58	1.36	-2.92	-6.16	-8.75	-11.27	-14.28	-18.14	-23	-28.8	-35.28	-41.82	-47.52	-51.39	-52.62	-50.93	-46.52	-40.06	-32.37	-24.14	-15.8	-7.61	0.3	7.74	14.42	20.08	24.48	27.64	29.74	31.05	31.68	31.62	30.69	28.75	25.83	22.33	18.86	16.03	14.24	13.38	13.05	12.72	11.91	10.44	8.29	5.61	2.56	-0.68	-3.97	-7.15	-10.28	-13.6	-17.48	-22.25	-27.91	-34.05	-39.8	-44.06	-45.81	-44.38	-39.66	-32.12	-22.76	-12.75	-3.18	5.22	12.07	17.37	21.28	24.03	25.82	26.84	27.26	27.21	26.75	25.89	24.65	23.17	21.74	20.74	20.3	20.31	20.31	19.72	18.15	15.49	12.05	8.26	4.61	1.37	-1.37	-3.76	-6.1
31.05	31.68	31.62	30.69	28.75	25.83	22.33	18.86	16.03	14.24	13.38	13.05	12.72	11.91	10.44	8.29	5.61	2.56	-0.68	-3.97	-7.15	-10.28	-13.6	-17.48	-22.25	-27.91	-34.05	-39.8	-44.06	-45.81	-44.38	-39.66	-32.12	-22.76	-12.75	-3.18	5.22	12.07	17.37	21.28	24.03	25.82	26.84	27.26	27.21	26.75	25.89	24.65	23.17	21.74	20.74	20.3	20.31	20.31	19.72	18.15	15.49	12.05	8.26	4.61	1.37	-1.37	-3.76	-6.1	-8.75	-12.07	-16.43	-21.97	-28.5	-35.4	-41.6	-45.82	-47.02	-44.71	-39.14	-31.18	-22.03	-12.8	-4.3	3.05	9.14	14.12	18.18	21.54	24.29	26.41	27.77	28.22	27.64	26.21	24.27	22.34	20.83	19.88	19.3	18.77	17.92	16.58	14.75	12.57	10.18	7.72	5.19	2.6	-0.02	-2.69	-5.51	-8.77	-12.83	-17.97	-24.12	-30.76	-36.99	-41.74	-44.15	-43.7	-40.32	-34.39	-26.59	-17.71	-8.53	0.27	8.19	14.86	20.14	24.18	27.27	29.79
-8.75	-12.07	-16.43	-21.97	-28.5	-35.4	-41.6	-45.82	-47.02	-44.71	-39.14	-31.18	-22.03	-12.8	-4.3	3.05	9.14	14.12	18.18	21.54	24.29	26.41	27.77	28.22	27.64	26.21	24.27	22.34	20.83	19.88	19.3	18.77	17.92	16.58	14.75	12.57	10.18	7.72	5.19	2.6	-0.02	-2.69	-5.51	-8.77	-12.83	-17.97	-24.12	-30.76	-36.99	-41.74	-44.15	-43.7	-40.32	-34.39	-26.59	-17.71	-8.53	0.27	8.19	14.86	20.14	24.18	27.27	29.79	31.94	33.62	34.48	34.14	32.47	29.77	26.65	23.74	21.36	19.44	17.69	15.86	13.98	12.22	10.67	9.1	7.1	4.33	0.82	-3.05	-6.74	-9.95	-12.85	-16.01	-20.04	-25.33	-31.69	-38.46	-44.67	-49.27	-51.42	-50.64	-46.91	-40.63	-32.53	-23.47	-14.3	-5.69	1.96	8.5	13.94	18.33	21.69	23.99	25.17	25.24	24.4	23	21.49	20.29	19.61	19.42	19.43	19.38	19.02	18.2	16.95	15.26	13.15	10.65	7.83	4.84	1.84	-1.03
31.94	33.62	34.48	34.14	32.47	29.77	26.65	23.74	21.36	19.44	17.69	15.86	13.98	12.22	10.67	9.1	7.1	4.33	0.82	-3.05	-6.74	-9.95	-12.85	-16.01	-20.04	-25.33	-31.69	-38.46	-44.67	-49.27	-51.42	-50.64	-46.91	-40.63	-32.53	-23.47	-14.3	-5.69	1.96	8.5	13.94	18.33	21.69	23.99	25.17	25.24	24.4	23	21.49	20.29	19.61	19.42	19.43	19.38	19.02	18.2	16.95	15.26	13.15	10.65	7.83	4.84	1.84	-1.03	-3.74	-6.37	-9.11	-12.21	-15.87	-20.23	-25.24	-30.61	-35.8	-40	-42.35	-42.15	-39.11	-33.47	-25.92	-17.33	-8.52	-0.06	7.69	14.5	20.18	24.47	27.15	28.12	27.52	25.72	23.29	20.76	18.54	16.83	15.55	14.54	13.56	12.55	11.59	10.83	10.36	10.04	9.52	8.33	6.12	2.94	-0.82	-4.6	-7.88	-10.49	-12.66	-14.93	-17.89	-21.86	-26.74	-31.91	-36.46	-39.41	-39.95	-37.64	-32.56	-25.23	-16.54	-7.42	1.28	8.96	15.3	20.19
-3.74	-6.37	-9.11	-12.21	-15.87	-20.23	-25.24	-30.61	-35.8	-40	-42.35	-42.15	-39.11	-33.47	-25.92	-17.33	-8.52	-0.06	7.69	14.5	20.18	24.47	27.15	28.12	27.52	25.72	23.29	20.76	18.54	16.83	15.55	14.54	13.56	12.55	11.59	10.83	10.36	10.04	9.52	8.33	6.12	2.94	-0.82	-4.6	-7.88	-10.49	-12.66	-14.93	-17.89	-21.86	-26.74	-31.91	-36.46	-39.41	-39.95	-37.64	-32.56	-25.23	-16.54	-7.42	1.28	8.96	15.3	20.19	23.62	25.67	26.52	26.41	25.56	24.19	22.51	20.67	18.74	16.79	14.84	12.96	11.27	9.92	8.95	8.19	7.33	5.97	3.85	0.96	-2.46	-6.01	-9.41	-12.64	-15.93	-19.61	-23.89	-28.62	-33.23	-37.02	-39.15	-39.09	-36.62	-31.85	-25.19	-17.18	-8.47	0.31	8.45	15.32	20.46	23.66	25.09	25.14	24.24	22.82	21.15	19.45	17.93	16.76	16.03	15.77	15.78	15.74	15.31	14.17	12.17	9.36	5.99	2.38	-1.12	-4.34	-7.24	-9.94
23.62	25.67	26.52	26.41	25.56	24.19	22.51	20.67	18.74	16.79	14.84	12.96	11.27	9.92	8.95	8.19	7.33	5.97	3.85	0.96	-2.46	-6.01	-9.41	-12.64	-15.93	-19.61	-23.89	-28.62	-33.23	-37.02	-39.15	-39.09	-36.62	-31.85	-25.19	-17.18	-8.47	0.31	8.45	15.32	20.46	23.66	25.09	25.14	24.24	22.82	21.15	19.45	17.93	16.76	16.03	15.77	15.78	15.74	15.31	14.17	12.17	9.36	5.99	2.38	-1.12	-4.34	-7.24	-9.94	-12.73	-15.88	-19.62	-23.98	-28.83	-33.73	-37.98	-40.75	-41.21	-38.86	-33.63	-25.96	-16.67	-6.87	2.42	10.32	16.35	20.42	22.74	23.74	23.81	23.22	22.12	20.56	18.67	16.58	14.53	12.75	11.33	10.26	9.39	8.54	7.67	6.88	6.3	5.92	5.48	4.49	2.53	-0.53	-4.4	-8.59	-12.65	-16.54	-20.53	-25.01	-30.04	-35.18	-39.47	-41.79	-41.31	-37.78	-31.65	-23.85	-15.42	-7.24	0.17	6.71	12.45	17.49	21.8	25.25	27.63	28.84
-12.73	-15.88	-19.62	-23.98	-28.83	-33.73	-37.98	-40.75	-41.21	-38.86	-33.63	-25.96	-16.67	-6.87	2.42	10.32	16.35	20.42	22.74	23.74	23.81	23.22	22.12	20.56	18.67	16.58	14.53	12.75	11.33	10.26	9.39	8.54	7.67	6.88	6.3	5.92	5.48	4.49	2.53	-0.53	-4.4	-8.59	-12.65	-16.54	-20.53	-25.01	-30.04	-35.18	-39.47	-41.79	-41.31	-37.78	-31.65	-23.85	-15.42	-7.24	0.17	6.71	12.45	17.49	21.8	25.25	27.63	28.84	28.92	28.02	26.38	24.26	22.04	20.11	18.82	18.23	18.12	18.02	17.5	16.33	14.49	12.03	9	5.35	1.07	-3.56	-8.17	-12.42	-16.22	-19.92	-24.01	-28.79	-34.1	-39.25	-43.31	-45.48	-45.29	-42.61	-37.52	-30.2	-21.02	-10.61	0.09	10.02	18.26	24.31	28.15	30.14	30.78	30.45	29.35	27.56	25.28	22.78	20.49	18.72	17.54	16.79	16.11	15.24	14.04	12.64	11.18	9.82	8.63	7.47	6.16	4.42	2.04	-1.15	-5.15	-9.77
28.92	28.02	26.38	24.26	22.04	20.11	18.82	18.23	18.12	18.02	17.5	16.33	14.49	12.03	9	5.35	1.07	-3.56	-8.17	-12.42	-16.22	-19.92	-24.01	-28.79	-34.1	-39.25	-43.31	-45.48	-45.29	-42.61	-37.52	-30.2	-21.02	-10.61	0.09	10.02	18.26	24.31	28.15	30.14	30.78	30.45	29.35	27.56	25.28	22.78	20.49	18.72	17.54	16.79	16.11	15.24	14.04	12.64	11.18	9.82	8.63	7.47	6.16	4.42	2.04	-1.15	-5.15	-9.77	-14.69	-19.63	-24.48	-29.27	-34.05	-38.5	-41.83	-43.02	-41.15	-36	-28.1	-18.74	-9.31	-0.93	5.9	11.25	15.37	18.42	20.46	21.43	21.43	20.8	19.97	19.26	18.8	18.46	18.05	17.44	16.72	15.99	15.37	14.79	14.06	13	11.51	9.63	7.42	4.96	2.32	-0.42	-3.14	-5.76	-8.35	-11.29	-15.02	-19.93	-25.98	-32.53	-38.41	-42.23	-42.87	-39.9	-33.67	-25.15	-15.65	-6.45	1.61	8.04	12.86	16.35	18.88	20.77	22.22	23.29
-14.69	-19.63	-24.48	-29.27	-34.05	-38.5	-41.83	-43.02	-41.15	-36	-28.1	-18.74	-9.31	-0.93	5.9	11.25	15.37	18.42	20.46	21.43	21.43	20.8	19.97	19.26	18.8	18.46	18.05	17.44	16.72	15.99	15.37	14.79	14.06	13	11.51	9.63	7.42	4.96	2.32	-0.42	-3.14	-5.76	-8.35	-11.29	-15.02	-19.93	-25.98	-32.53	-38.41	-42.23	-42.87	-39.9	-33.67	-25.15	-15.65	-6.45	1.61	8.04	12.86	16.35	18.88	20.77	22.22	23.29	23.88	23.82	22.9	21.06	18.46	15.55	12.93	11.14	10.34	10.32	10.62	10.71	10.31	9.33	7.8	5.71	2.97	-0.45	-4.35	-8.38	-12.07	-15.18	-17.86	-20.61	-23.95	-28.12	-32.72	-36.74	-39	-38.47	-34.76	-28.24	-19.87	-10.98	-2.8	3.83	8.65	11.89	14.03	15.54	16.7	17.51	17.84	17.47	16.41	14.9	13.42	12.46	12.2	12.43	12.59	12.09	10.75	8.82	6.88	5.31	4.16	2.99	1.26	-1.22	-4.16	-7.01	-9.36	-11.42
23.88	23.82	22.9	21.06	18.46	15.55	12.93	11.14	10.34	10.32	10.62	10.71	10.31	9.33	7.8	5.71	2.97	-0.45	-4.35	-8.38	-12.07	-15.18	-17.86	-20.61	-23.95	-28.12	-32.72	-36.74	-39	-38.47	-34.76	-28.24	-19.87	-10.98	-2.8	3.83	8.65	11.89	14.03	15.54	16.7	17.51	17.84	17.47	16.41	14.9	13.42	12.46	12.2	12.43	12.59	12.09	10.75	8.82	6.88	5.31	4.16	2.99	1.26	-1.22	-4.16	-7.01	-9.36	-11.42	-13.91	-17.59	-22.58	-28.08	-32.58	-34.53	-33.07	-28.37	-21.46	-13.64	-6	0.99	7.28	12.97	18.04	22.24	25.15	26.45	26.03	24.13	21.29	18.23	15.66	14.06	13.52	13.71	14.04	13.93	13.11	11.69	10.11	8.73	7.59	6.29	4.25	1.07	-3.16	-7.88	-12.38	-16.25	-19.57	-22.83	-26.55	-30.67	-34.48	-36.81	-36.53	-33.18	-27.09	-19.32	-11.09	-3.4	3.19	8.53	12.71	15.84	18.05	19.45	20.19	20.39	20.12	19.39	18.2	16.61
-13.91	-17.59	-22.58	-28.08	-32.58	-34.53	-33.07	-28.37	-21.46	-13.64	-6	0.99	7.28	12.97	18.04	22.24	25.15	26.45	26.03	24.13	21.29	18.23	15.66	14.06	13.52	13.71	14.04	13.93	13.11	11.69	10.11	8.73	7.59	6.29	4.25	1.07	-3.16	-7.88	-12.38	-16.25	-19.57	-22.83	-26.55	-30.67	-34.48	-36.81	-36.53	-33.18	-27.09	-19.32	-11.09	-3.4	3.19	8.53	12.71	15.84	18.05	19.45	20.19	20.39	20.12	19.39	18.2	16.61	14.79	12.98	11.46	10.35	9.63	9.16	8.65	7.82	6.43	4.34	1.58	-1.61	-4.94	-8.12	-11.09	-14.03	-17.3	-21.27	-25.89	-30.59	-34.32	-35.89	-34.5	-30.14	-23.7	-16.5	-9.81	-4.21	0.39	4.52	8.61	12.68	16.27	18.78	19.87	19.55	18.19	16.2	13.93	11.59	9.44	7.78	6.84	6.7	7.05	7.37	7.13	6.01	4.06	1.56	-1.13	-3.77	-6.27	-8.68	-11.16	-13.99	-17.47	-21.79	-26.72	-31.52	-34.97	-35.72	-32.91	-26.61
