1663883428.00
64.000000
-0.00
-0.00
-0.00
-0.00
-0.00
-0.00
-0.00
-0.00
-0.00
-0.00
0.00
0.01
0.01
-0.00
-0.03
-0.05
-0.05
0.00
0.13
0.36
0.66
1.01
1.37
1.72
2.06
2.40
2.79
3.24
3.80
4.42
5.06
5.66
6.20
6.68
7.15
7.68
8.31
9.14
10.09
11.04
11.88
12.56
13.14
13.76
14.65
15.96
17.91
20.32
22.90
25.38
27.58
29.57
31.68
34.32
37.81
42.54
48.15
54.10
59.83
64.97
69.58
74.14
79.34
85.71
93.76
103.00
112.62
121.73
129.77
136.75
143.30
150.75
157.77
166.64
177.95
191.79
206.97
220.57
228.25
225.36
208.53
176.87
132.76
80.05
23.07
-34.94
-92.44
-149.16
-205.23
-260.37
-313.74
-363.87
-409.83
-450.91
-486.50
-515.74
-537.23
-549.22
-549.96
-538.37
-514.21
-478.67
-433.88
-382.45
-327.02
-269.84
-212.63
-156.66
-102.95
-52.37
-5.90
35.58
71.43
101.35
125.50
144.38
158.69
169.15
176.37
180.75
182.57
182.07
179.51
175.23
169.65
163.18
156.15
148.81
141.30
133.69
126.02
118.33
110.69
103.16
95.80
88.68
81.83
75.25
68.95
62.95
57.25
51.86
46.78
42.03
37.59
33.45
29.61
26.07
22.81
19.83
17.11
14.67
12.48
10.54
8.83
7.35
6.07
4.97
4.05
3.27
2.62
2.09
1.65
1.30
1.01
0.79
0.61
0.48
0.37
0.29
0.24
0.20
0.18
0.17
0.17
0.19
0.21
0.23
0.27
0.30
0.35
0.39
0.43
0.48
0.53
0.58
0.63
0.68
0.74
0.80
0.87
0.95
1.03
1.12
1.22
1.33
1.46
1.60
1.76
1.94
2.14
2.36
2.60
2.87
3.17
3.49
3.86
4.25
4.67
5.13
5.64
6.17
6.75
7.37
8.03
8.74
9.49
10.29
11.14
12.03
12.96
13.95
15.00
16.11
17.28
18.52
19.80
21.08
22.33
23.46
24.38
24.98
25.11
24.68
23.57
21.76
19.21
15.99
12.16
7.91
3.40
-1.14
-5.51
-9.49
-12.92
-15.68
-17.71
-18.98
-19.52
-19.41
-18.76
-17.66
-16.23
-14.58
-12.82
-11.02
-9.24
-7.50
-5.82
-4.19
-2.59
-0.96
0.72
2.44
4.20
6.01
7.95
9.94
12.01
14.22
16.60
19.16
21.86
24.65
27.52
30.57
33.64
36.76
40.03
43.51
47.19
50.96
54.67
58.22
61.76
65.09
68.37
71.85
75.70
79.89
84.10
87.89
90.93
93.22
94.44
94.81
94.69
94.16
92.80
89.50
82.53
69.55
53.06
34.04
13.58
-7.14
-27.30
-46.60
-65.33
-84.10
-103.76
-125.10
-149.34
-176.79
-206.35
-235.22
-259.23
-273.81
-275.62
-263.73
-240.07
-209.33
-176.61
-145.94
-119.43
-97.30
-78.79
-63.03
-49.53
-38.13
-28.94
-21.62
-15.40
-9.49
-3.41
2.75
8.34
12.60
15.16
16.19
16.57
17.41
19.43
22.53
25.73
27.68
27.42
24.85
20.85
16.81
13.93
12.67
12.63
12.89
12.59
11.38
9.49
7.56
6.28
6.19
7.54
10.33
14.35
19.17
24.19
28.74
32.20
34.41
35.60
36.43
37.58
39.41
41.61
43.33
43.47
41.26
36.72
30.73
24.78
20.28
17.99
17.69
18.40
18.91
18.35
16.56
13.98
11.27
8.96
7.14
5.66
4.28
2.88
1.58
0.52
-0.31
-1.15
-2.37
-4.24
-6.79
-9.73
-12.66
-15.23
-17.41
-19.37
-21.33
-23.29
-24.90
-25.54
-24.63
-21.93
-17.66
-12.40
-6.88
-1.72
2.71
6.27
8.98
10.87
12.03
12.50
12.40
11.89
11.21
10.66
10.44
10.67
11.29
12.03
12.58
12.68
12.23
11.35
10.25
9.09
7.99
6.93
5.88
4.84
3.87
3.03
2.41
2.05
1.95
2.06
2.18
1.99
1.18
-0.40
-2.59
-4.86
-6.56
-7.18
-6.72
-5.77
-5.26
-6.07
-8.54
-12.29
-16.25
-19.12
-19.84
-17.96
-13.80
-8.21
-2.21
3.36
8.06
11.78
14.56
16.40
17.21
16.91
15.59
13.59
11.42
9.55
8.22
7.40
6.88
6.49
6.25
6.29
6.76
7.52
8.19
8.22
7.22
5.20
2.66
0.32
-1.23
-1.91
-2.09
-2.39
-3.27
-4.73
-6.34
-7.59
-8.20
-8.36
-8.61
-9.48
-11.18
-13.45
-15.76
-17.57
-18.63
-18.94
-18.63
-17.66
-15.83
-12.86
-8.70
-3.67
1.57
6.22
9.72
11.89
12.96
13.32
13.22
12.71
11.73
10.26
8.55
7.01
6.04
5.82
6.23
6.91
7.54
8.02
8.48
9.13
10.01
10.89
11.37
11.06
9.81
7.78
5.30
2.77
0.47
-1.44
-2.90
-3.94
-4.67
-5.35
-6.28
-7.71
-9.68
-11.97
-14.18
-15.94
-17.04
-17.47
-17.26
-16.33
-14.43
-11.33
-7.00
-1.83
3.46
8.08
11.52
13.73
15.07
16.08
17.07
18.04
18.69
18.64
17.75
16.22
14.51
13.11
12.28
11.99
11.96
11.86
11.50
10.84
9.96
8.87
7.55
5.96
4.14
2.22
0.48
-0.96
-2.07
-3.03
-4.06
-5.30
-6.74
-8.23
-9.57
-10.70
-11.63
-12.50
-13.49
-14.73
-16.26
-18.00
-19.69
-20.91
-21.12
-19.82
-16.79
-12.32
-7.16
-2.31
1.34
3.36
3.91
3.62
3.19
3.09
3.37
3.75
3.89
3.65
3.16
2.77
2.70
3.00
3.46
3.80
3.90
3.81
3.75
3.84
4.00
3.88
3.09
1.40
-0.96
-3.47
-5.49
-6.55
-6.60
-6.04
-5.50
-5.62
-6.73
-8.78
-11.47
-14.38
-17.16
-19.53
-21.25
-21.97
-21.30
-19.00
-15.15
-10.29
-5.22
-0.73
2.83
5.58
7.96
10.33
12.59
14.22
14.56
13.25
10.56
7.36
4.77
3.62
4.16
6.04
8.52
10.90
12.66
13.56
13.48
12.35
10.07
6.70
2.48
-2.14
-6.63
-10.53
-13.54
-15.58
-16.70
-17.01
-16.66
-15.92
-15.22
-15.06
-15.83
-17.64
-20.14
-22.75
-24.75
-25.65
-25.25
-23.62
-20.93
-17.27
-12.74
-7.52
-2.02
3.19
7.48
10.50
12.23
13.01
13.16
12.86
12.07
10.64
8.64
6.42
4.60
3.70
3.91
4.93
6.19
7.12
7.43
7.18
6.60
5.92
5.15
4.21
2.99
1.47
-0.20
-1.88
-3.50
-5.07
-6.67
-8.21
-9.52
-10.39
-10.75
-10.82
-11.09
-12.08
-14.07
-16.85
-19.72
-21.76
-22.14
-20.48
-16.95
-12.15
-6.80
-1.52
3.36
7.74
11.58
14.72
16.90
17.91
17.78
16.84
15.63
14.64
14.03
13.58
12.82
11.43
9.49
7.51
6.18
5.96
6.68
7.68
8.07
7.25
5.25
2.72
0.46
-0.98
-1.62
-1.99
-2.70
-4.04
-5.76
-7.26
-8.00
-7.91
-7.49
-7.57
-8.86
-11.50
-14.95
-18.18
-20.13
-20.14
-18.17
-14.69
-10.40
-5.87
-1.40
2.98
7.26
11.32
14.84
17.38
18.60
18.38
16.90
14.60
12.04
9.73
7.96
6.83
6.24
6.08
6.26
6.71
7.34
7.88
7.95
7.14
5.32
2.74
-0.04
-2.42
-4.09
-5.21
-6.23
-7.54
-9.19
-10.74
-11.68
-11.75
-11.29
-11.09
-11.95
-14.22
-17.49
-20.73
-22.78
-22.83
-20.71
-16.88
-12.03
-6.74
-1.32
4.13
9.50
14.49
18.60
21.32
22.38
21.91
20.43
18.62
17.09
16.24
16.10
16.48
17.02
17.42
17.47
17.14
16.47
15.56
14.47
13.23
11.80
10.15
8.24
6.00
3.41
0.41
-2.93
-6.50
-10.03
-13.23
-15.87
-17.88
-19.48
-21.05
-23.04
-25.65
-28.77
-31.92
-34.41
-35.57
-34.99
-32.71
-29.08
-24.61
-19.75
-14.74
-9.63
-4.39
0.87
5.85
10.08
13.14
14.84
15.33
15.08
14.68
14.57
14.86
15.36
15.72
15.65
15.16
14.53
14.19
14.38
15.09
15.98
16.55
16.45
15.56
14.06
12.27
10.45
8.70
7.01
5.30
3.54
1.74
-0.05
-1.84
-3.75
-5.93
-8.51
-11.46
-14.66
-17.83
-20.62
-22.61
-23.38
-22.64
-20.29
-16.52
-11.80
-6.77
-2.09
1.76
4.51
6.20
6.97
7.02
6.53
5.68
4.70
3.96
3.79
4.42
5.76
7.50
9.11
10.15
10.41
9.94
8.99
7.76
6.37
4.85
3.22
1.55
0.00
-1.30
-2.35
-3.29
-4.33
-5.62
-7.15
-8.73
-10.08
-11.00
-11.48
-11.72
-11.98
-12.50
-13.36
-14.43
-15.44
-16.02
-15.79
-14.41
-11.60
-7.23
-1.37
5.57
12.93
19.92
25.83
30.26
33.13
34.65
35.08
34.67
33.57
31.92
29.95
28.06
26.68
26.21
26.75
28.09
29.70
30.91
31.09
29.93
27.52
24.31
20.95
17.99
15.64
13.72
11.77
9.27
5.90
1.59
-3.40
-8.64
-13.64
-18.00
-21.48
-24.07
-26.01
-27.68
-29.52
-31.78
-34.38
-36.89
-38.66
-39.06
-37.74
-34.68
-30.16
-24.54
-18.18
-11.33
-4.31
2.49
8.53
13.28
16.44
18.08
18.63
18.69
18.75
18.97
19.21
19.17
18.60
17.46
15.93
14.28
12.75
11.48
10.46
9.65
8.97
8.39
7.87
7.35
6.72
5.81
4.45
2.52
0.02
-2.93
-6.07
-9.13
-11.95
-14.49
-16.79
-18.94
-21.03
-23.15
-25.42
-27.87
-30.32
-32.24
-32.81
-31.21
-27.03
-20.57
-12.78
-4.93
1.93
7.37
11.53
14.83
17.59
19.76
21.04
21.20
20.31
18.82
17.38
16.55
16.52
17.13
17.91
18.37
18.22
17.43
16.22
14.86
13.47
11.97
10.15
7.87
5.26
2.74
0.87
0.02
0.11
0.65
0.91
0.30
-1.36
-3.78
-6.40
-8.70
-10.52
-12.07
-13.73
-15.75
-17.98
-19.81
-20.47
-19.35
-16.32
-11.75
-6.36
-0.83
4.43
9.31
13.85
18.06
21.79
24.81
26.96
28.19
28.61
28.34
27.50
26.12
24.33
22.43
20.84
20.00
20.11
21.01
22.16
22.88
22.61
21.12
18.58
15.47
12.35
9.69
7.77
6.64
6.24
6.39
6.87
7.43
7.82
7.87
7.54
7.06
6.78
7.21
8.72
11.40
14.96
18.78
22.11
24.34
25.16
24.82
24.12
24.23
26.42
31.50
39.24
48.13
55.56
58.71
55.64
46.18
32.10
16.39
1.90
-9.90
-19.48
-28.81
-40.34
-55.91
-76.23
-101.08
-129.97
-162.70
-199.45
-240.45
-285.38
-333.00
-380.84
-425.14
-461.14
-483.62
-488.01
-471.65
-435.07
-382.39
-320.67
-257.83
-200.33
-151.20
-109.54
-71.76
-33.52
8.37
55.09
105.98
159.23
212.28
262.20
305.98
341.17
366.50
382.21
389.77
390.83
386.00
374.22
353.15
320.73
276.98
225.09
171.17
122.75
86.64
67.10
64.84
77.27
99.48
125.68
150.54
170.00
181.50
183.83
176.91
161.69
140.07
114.62
88.08
62.80
40.39
21.58
6.48
-5.22
-13.91
-19.94
-23.63
-25.40
-25.85
-25.82
-26.45
-28.98
-34.48
-43.46
-55.56
-69.47
-83.26
-94.91
-102.97
-106.92
-107.27
-105.12
-101.66
-97.62
-93.07
-87.55
-80.38
-71.19
-60.23
-48.43
-37.19
-27.90
-21.48
-18.07
-17.11
-17.63
-18.68
-19.66
-20.29
-20.45
-19.86
-18.08
-14.63
-9.43
-3.06
3.31
8.31
10.89
10.79
8.67
5.78
3.51
2.82
3.95
6.35
8.93
10.52
10.30
8.04
4.22
-0.22
-4.28
-7.23
-8.93
-9.80
-10.64
-12.26
-15.15
-19.32
-24.15
-28.58
-31.40
-31.61
-28.82
-23.38
-16.33
-9.05
-2.81
1.58
3.95
4.73
4.69
4.66
5.24
6.67
8.78
11.06
12.81
13.43
12.68
10.77
8.36
6.23
4.96
4.63
4.89
5.17
5.07
4.61
4.12
3.95
4.12
4.15
3.34
1.23
-2.03
-5.64
-8.58
-10.21
-10.69
-10.92
-11.95
-14.42
-18.01
-21.60
-23.75
-23.41
-20.43
-15.51
-9.89
-4.67
-0.40
3.08
6.32
9.87
13.73
17.32
19.66
19.86
17.66
13.72
9.36
6.03
4.70
5.40
7.39
9.51
10.88
11.23
10.85
10.15
9.28
7.93
5.58
1.88
-2.93
-8.08
-12.60
-15.75
-17.29
-17.47
-16.66
-15.07
-12.73
-9.58
-5.84
-2.15
0.62
1.68
0.71
-1.86
-5.03
-7.54
-8.35
-7.04
-3.84
0.44
4.76
8.27
10.50
11.39
11.22
10.35
9.10
7.75
6.56
5.81
5.77
6.50
7.68
8.71
8.84
7.54
4.88
1.55
-1.36
-2.80
-2.29
-0.11
2.75
5.05
5.84
4.89
2.71
0.30
-1.42
-2.12
-2.22
-2.71
-4.57
-8.19
-13.14
-18.27
-22.25
-24.11
-23.66
-21.38
-18.12
-14.57
-11.06
-7.57
-3.97
-0.36
2.85
5.11
6.00
5.48
3.94
1.95
0.04
-1.55
-2.85
-3.94
-4.74
-4.98
-4.22
-2.22
0.87
4.38
7.41
9.15
9.25
7.93
5.76
3.34
0.92
-1.69
-4.93
-9.10
-14.00
-18.84
-22.50
-23.97
-22.89
-19.80
-15.97
-12.98
-12.04
-13.51
-16.75
-20.36
-22.72
-22.70
-19.90
-14.79
-8.32
-1.48
5.00
10.81
15.89
20.17
23.37
25.09
24.96
22.98
19.66
15.96
12.93
11.25
10.97
11.49
11.90
11.48
10.07
8.17
6.60
6.02
6.49
7.46
8.03
7.55
5.91
3.66
1.63
0.47
0.25
0.43
0.15
-1.31
-4.22
-8.19
-12.50
-16.40
-19.36
-21.22
-22.00
-21.68
-20.17
-17.28
-12.97
-7.52
-1.59
3.96
8.36
11.29
12.92
13.76
14.35
14.97
15.52
15.69
15.22
14.08
12.59
11.18
10.22
9.84
9.85
9.86
9.52
8.65
7.29
5.67
3.98
2.34
0.70
-1.06
-2.97
-4.89
-6.59
-7.86
-8.74
-9.52
-10.62
-12.33
-14.63
-17.15
-19.44
-21.16
-22.31
-23.16
-23.94
-24.53
-24.43
-22.93
-19.49
-14.12
-7.46
-0.55
5.58
10.29
13.49
15.55
16.97
18.07
18.89
19.25
18.98
18.10
16.95
16.07
15.96
16.92
18.87
21.39
23.88
25.79
26.78
26.79
25.97
24.58
22.82
20.76
18.35
15.52
12.33
8.95
5.66
2.72
0.29
-1.62
-3.07
-4.21
-5.10
-5.88
-6.74
-8.05
-10.21
-13.44
-17.53
-21.78
-25.12
-26.52
-25.40
-21.87
-16.65
-10.75
-5.05
-0.09
3.97
7.14
9.38
10.55
10.57
9.58
8.05
6.70
6.10
6.43
7.31
8.01
7.86
6.70
5.06
3.90
4.13
6.08
9.24
12.53
14.82
15.49
14.65
13.01
11.32
9.94
8.64
6.90
4.36
1.24
-1.68
-3.42
-3.39
-1.85
0.14
1.19
0.24
-2.86
-7.29
-11.62
-14.55
-15.39
-14.31
-12.01
-9.22
-6.28
-3.04
0.80
5.34
10.20
14.58
17.66
18.99
18.79
17.69
16.46
15.58
15.03
14.47
13.50
11.96
10.08
8.34
7.14
6.64
6.62
6.64
6.29
5.33
3.77
1.81
-0.39
-2.80
-5.50
-8.61
-12.13
-15.84
-19.40
-22.45
-24.77
-26.37
-27.38
-27.97
-28.28
-28.36
-28.27
-28.09
-27.90
-27.72
-27.38
-26.53
-24.69
-21.52
-16.99
-11.49
-5.82
-0.88
2.65
4.55
5.17
5.25
5.59
6.64
8.38
10.28
11.65
11.93
11.04
9.34
7.47
6.03
5.36
5.40
5.86
6.44
7.00
7.67
8.63
9.96
11.41
12.52
12.80
12.07
10.60
8.98
7.90
7.68
8.14
8.61
8.25
6.45
3.11
-1.30
-5.96
-9.96
-12.61
-13.63
-13.15
-11.61
-9.47
-7.12
-4.68
-2.13
0.57
3.36
5.99
8.13
9.49
10.00
9.85
9.39
8.92
8.57
8.27
7.84
7.15
6.23
5.23
4.35
3.69
3.24
2.88
2.52
2.12
1.78
1.58
1.56
1.56
1.29
0.39
-1.32
-3.76
-6.48
-8.80
-10.05
-9.88
-8.50
-6.60
-5.10
-4.81
-6.08
-8.67
-11.87
-14.79
-16.61
-16.86
-15.39
-12.39
-8.23
-3.37
1.68
6.46
10.57
13.75
15.94
17.18
17.63
17.46
16.83
15.86
14.66
13.39
12.19
11.19
10.44
9.90
9.50
9.24
9.15
9.30
9.71
10.20
10.42
10.02
8.73
6.56
3.79
0.88
-1.75
-3.81
-5.35
-6.63
-8.07
-9.99
-12.53
-15.56
-18.73
-21.52
-23.43
-24.14
-23.53
-21.79
-19.19
-16.02
-12.40
-8.34
-3.83
0.91
5.46
9.18
11.48
12.08
11.18
9.40
7.52
6.14
5.47
5.40
5.62
5.91
6.28
6.94
8.14
10.01
12.40
14.95
17.14
18.48
18.70
17.77
15.96
13.63
11.14
8.70
6.37
4.13
1.92
-0.23
-2.25
-4.04
-5.50
-6.63
-7.52
-8.36
-9.40
-10.82
-12.72
-14.99
-17.39
-19.55
-21.19
-22.15
-22.39
-21.92
-20.67
-18.51
-15.32
-11.23
-6.61
-2.12
1.59
4.16
5.70
6.62
7.47
8.59
9.96
11.33
12.46
13.30
14.05
14.90
15.92
16.92
17.57
17.67
17.26
16.62
16.08
15.86
15.93
16.07
15.96
15.31
13.93
11.71
8.66
4.95
0.85
-3.29
-7.21
-10.75
-13.87
-16.60
-18.90
-20.70
-21.91
-22.64
-23.13
-23.68
-24.34
-24.79
-24.35
-22.22
-18.02
-12.02
-5.25
0.96
5.49
7.91
8.59
8.37
8.08
8.13
8.41
8.58
8.37
7.84
7.36
7.33
7.94
9.04
10.20
11.01
11.21
10.87
10.24
9.56
8.86
7.91
6.34
3.86
0.47
-3.45
-7.28
-10.51
-12.95
-14.82
-16.59
-18.64
-21.01
-23.36
-25.27
-26.46
-26.98
-27.09
-26.95
-26.46
-25.14
-22.52
-18.41
-13.19
-7.72
-2.92
0.57
2.78
4.24
5.58
7.16
8.72
9.59
9.09
7.07
4.07
1.21
-0.45
-0.37
1.09
3.01
4.38
4.75
4.41
4.06
4.34
5.24
6.08
5.91
4.14
1.00
-2.56
-5.29
-6.44
-6.15
-5.38
-5.30
-6.63
-9.22
-12.25
-14.77
-16.30
-17.14
-18.03
-19.58
-21.67
-23.40
-23.57
-21.38
-16.95
-11.31
-5.78
-1.26
2.21
5.28
8.66
12.57
16.47
19.44
20.78
20.49
19.29
18.14
17.69
17.97
18.50
18.72
18.38
17.69
17.08
16.85
16.95
17.01
16.63
15.64
14.13
12.35
10.48
8.50
6.28
3.69
0.85
-1.99
-4.49
-6.47
-7.98
-9.26
-10.60
-12.21
-14.19
-16.50
-19.00
-21.38
-23.12
-23.57
-22.12
-18.52
-13.10
-6.81
-0.87
3.62
6.15
6.93
6.69
6.30
6.29
6.71
7.20
7.34
6.94
6.17
5.39
4.91
4.76
4.70
4.43
3.79
2.94
2.16
1.68
1.40
0.88
-0.43
-2.78
-5.90
-8.97
-10.99
-11.27
-9.84
-7.46
-5.36
-4.64
-5.91
-9.04
-13.46
-18.42
-23.29
-27.61
-30.94
-32.73
-32.34
-29.34
-23.72
-16.21
-8.09
-0.82
4.45
7.38
8.40
8.52
8.66
9.31
10.35
11.26
11.63
11.44
11.12
11.24
12.12
13.56
14.95
15.65
15.35
14.24
12.83
11.59
10.70
9.94
8.89
7.22
4.89
2.17
-0.47
-2.67
-4.37
-5.84
-7.56
-9.99
-13.31
-17.31
-21.52
-25.34
-28.31
-30.12
-30.55
-29.32
-26.15
-20.86
-13.66
-5.34
2.80
9.31
13.06
13.73
11.95
9.03
6.56
5.74
7.01
9.89
13.29
16.03
17.36
17.26
16.40
15.66
15.72
16.65
18.00
19.08
19.35
18.63
17.11
15.06
12.64
9.87
6.78
3.54
0.55
-1.82
-3.40
-4.46
-5.62
-7.52
-10.53
-14.56
-19.11
-23.61
-27.57
-30.70
-32.74
-33.32
-31.96
-28.30
-22.43
-15.09
-7.48
-0.82
4.19
7.57
9.95
12.12
14.46
16.78
18.48
18.94
17.97
15.90
13.49
11.53
10.53
10.51
11.11
11.80
12.18
12.14
11.82
11.46
11.13
10.68
9.83
8.31
6.19
3.74
1.44
-0.41
-1.74
-2.78
-3.85
-5.20
-6.97
-9.20
-11.96
-15.32
-19.27
-23.50
-27.35
-30.00
-30.72
-29.22
-25.73
-20.86
-15.30
-9.57
-3.92
1.57
6.78
11.52
15.49
18.44
20.28
21.12
21.15
20.57
19.47
17.94
16.12
14.27
12.73
11.77
11.49
11.71
12.08
12.19
11.77
10.77
9.34
7.67
5.85
3.80
1.30
-1.79
-5.37
-9.06
-12.27
-14.56
-15.73
-16.03
-16.03
-16.32
-17.27
-18.97
-21.20
-23.77
-26.61
-29.78
-33.30
-36.88
-39.73
-40.72
-38.79
-33.36
-24.72
-14.06
-3.04
6.76
14.41
19.83
23.57
26.32
28.44
29.77
29.84
28.25
25.10
21.06
17.14
14.27
12.88
12.87
13.72
14.82
15.72
16.26
16.39
16.09
15.23
13.63
11.15
7.83
3.92
-0.20
-4.20
-7.95
-11.50
-15.09
-19.01
-23.61
-29.17
-35.92
-43.79
-52.18
-59.82
-65.00
-66.11
-62.39
-54.30
-43.49
-32.06
-21.68
-12.99
-5.63
1.20
8.07
14.86
20.92
25.50
28.25
29.39
29.49
29.05
28.32
27.27
25.88
24.33
23.06
22.55
23.01
24.17
25.38
25.83
24.96
22.77
19.78
16.74
14.26
12.51
11.14
9.58
7.28
4.10
0.30
-3.54
-6.89
-9.51
-11.56
-13.59
-16.13
-19.43
-23.17
-26.59
-28.70
-28.77
-26.53
-22.22
-16.36
-9.37
-1.52
7.07
16.07
24.77
32.13
37.09
39.08
38.24
35.43
31.75
28.02
24.56
21.25
17.95
14.90
12.76
12.24
13.60
16.31
19.09
20.47
19.48
16.07
11.12
5.82
1.09
-2.86
-6.44
-10.19
-14.25
-18.08
-20.64
-21.04
-19.16
-15.92
-12.97
-11.94
-13.49
-16.90
-20.28
-21.49
-19.13
-13.29
-5.41
2.45
8.69
12.84
15.59
18.13
21.29
24.92
27.96
29.11
27.65
23.91
19.16
14.93
12.27
11.20
11.00
10.69
9.76
8.40
7.32
7.16
7.96
9.06
9.42
8.19
5.11
0.69
-4.15
-8.57
-12.19
-15.10
-17.67
-20.11
-22.32
-23.96
-24.86
-25.27
-25.89
-27.39
-29.82
-32.23
-32.88
-30.01
-22.89
-12.42
-0.99
8.53
14.11
15.46
13.99
11.97
11.28
12.59
15.25
17.97
19.67
20.15
19.91
19.66
19.69
19.57
18.59
16.30
12.95
9.53
7.19
6.57
7.49
8.99
9.96
9.70
8.23
6.09
3.83
1.63
-0.71
-3.54
-6.87
-10.24
-12.95
-14.53
-15.10
-15.36
-16.21
-18.18
-21.15
-24.43
-27.26
-29.11
-29.98
-30.17
-29.86
-28.90
-26.80
-22.96
-17.16
-9.71
-1.45
6.56
13.42
18.68
22.32
24.58
25.73
25.91
25.12
23.41
21.10
18.77
17.13
16.64
17.27
18.45
19.39
19.56
18.97
18.16
17.83
18.26
19.05
19.24
17.91
14.69
10.09
5.28
1.49
-0.64
-1.33
-1.45
-2.06
-3.79
-6.64
-10.04
-13.27
-15.86
-17.72
-19.11
-20.39
-21.81
-23.42
-25.20
-27.20
-29.54
-32.25
-34.98
-36.94
-36.99
-34.14
-28.06
-19.33
-9.34
0.27
8.23
14.01
17.84
20.33
22.03
23.11
23.42
22.72
21.06
18.92
17.05
16.14
16.40
17.44
18.35
18.17
16.33
12.98
8.88
5.13
2.58
1.51
1.49
1.71
1.42
0.36
-1.26
-2.94
-4.31
-5.40
-6.58
-8.31
-10.70
-13.48
-16.08
-18.10
-19.59
-21.08
-23.26
-26.43
-30.12
-33.16
-34.11
-31.93
-26.47
-18.58
-9.72
-1.39
5.45
10.53
14.10
16.55
18.04
18.46
17.71
15.92
13.78
12.25
12.24
14.07
17.23
20.68
23.27
24.37
24.17
23.51
23.32
24.06
25.40
26.33
25.82
23.33
19.26
14.75
11.13
9.24
9.02
9.53
9.49
7.98
4.88
0.97
-2.64
-5.06
-6.07
-6.22
-6.31
-7.01
-8.53
-10.66
-13.20
-16.20
-20.03
-25.04
-31.12
-37.42
-42.46
-44.77
-43.45
-38.58
-31.11
-22.40
-13.63
-5.51
1.74
8.08
13.44
17.58
20.26
21.46
21.50
20.94
20.40
20.35
20.96
22.21
23.88
25.70
27.39
28.72
29.51
29.75
29.47
28.78
27.68
26.09
23.81
20.68
16.73
12.20
7.54
3.22
-0.40
-3.14
-5.12
-6.66
-8.19
-10.19
-12.99
-16.70
-21.13
-25.76
-29.92
-32.84
-33.85
-32.53
-28.71
-22.63
-14.79
-5.96
2.94
11.05
17.69
22.49
25.37
26.49
26.17
24.78
22.73
20.38
18.09
16.11
14.66
13.83
13.66
14.03
14.74
15.40
15.62
15.09
13.78
11.83
9.54
7.09
4.47
1.50
-1.94
-5.69
-9.20
-11.76
-12.80
-12.38
-11.24
-10.68
-12.06
-16.13
-22.80
-31.07
-39.47
-46.58
-51.45
-53.69
-53.25
-50.19
-44.48
-36.18
-25.80
-14.47
-3.87
4.34
9.17
10.75
10.28
9.44
9.55
10.98
13.15
14.91
15.29
14.06
11.83
9.75
8.90
9.82
12.33
15.62
18.63
20.53
20.91
19.85
17.72
14.91
11.68
8.11
4.30
0.48
-2.90
-5.33
-6.49
-6.49
-5.93
-5.66
-6.41
-8.52
-11.85
-15.93
-20.28
-24.64
-29.00
-33.35
-37.43
-40.64
-42.09
-41.03
-37.22
-31.14
-23.81
-16.45
-10.02
-4.84
-0.66
3.10
6.90
10.80
14.35
16.87
17.76
16.90
14.72
12.05
9.78
8.44
8.04
8.16
8.25
7.96
7.28
6.49
5.87
5.45
4.89
3.72
1.62
-1.24
-4.19
-6.39
-7.24
-6.76
-5.69
-5.06
-5.70
-7.85
-11.03
-14.42
-17.31
-19.49
-21.28
-23.26
-25.68
-28.28
-30.19
-30.35
-27.93
-22.73
-15.18
-6.13
3.53
13.07
21.90
29.44
34.94
37.64
37.04
33.31
27.51
21.31
16.56
14.57
15.65
19.01
23.19
26.62
28.24
27.70
25.31
21.70
17.41
12.79
7.98
3.07
-1.78
-6.38
-10.56
-14.37
-18.06
-21.94
-26.19
-30.60
-34.68
-37.81
-39.58
-40.01
-39.61
-39.03
-38.75
-38.71
-38.32
-36.66
-32.95
-26.92
-19.03
-10.22
-1.62
5.86
11.80
16.24
19.40
21.44
22.28
21.66
19.40
15.67
11.09
6.69
3.49
2.18
2.84
4.96
7.80
10.71
13.36
15.75
17.91
19.61
20.36
19.55
16.89
12.68
7.80
3.42
0.43
-0.93
-1.15
-1.13
-1.66
-3.06
-5.12
-7.35
-9.39
-11.35
-13.73
-17.10
-21.65
-26.89
-31.77
-35.05
-35.80
-33.78
-29.47
-23.71
-17.35
-10.92
-4.59
1.58
7.52
12.97
17.52
20.85
22.86
23.71
23.75
23.33
22.61
21.47
19.63
16.84
13.12
8.82
4.63
1.31
-0.52
-0.56
1.15
4.37
8.72
13.70
18.68
22.85
25.38
25.71
23.75
20.11
15.78
11.80
8.79
6.75
5.19
3.44
1.08
-1.91
-5.16
-8.22
-10.86
-13.24
-15.73
-18.63
-21.83
-24.65
-26.10
-25.29
-21.89
-16.34
-9.66
-2.91
3.22
8.66
13.70
18.54
22.95
26.25
27.76
27.31
25.52
23.60
22.79
23.64
25.77
27.92
28.64
26.88
22.47
16.10
8.97
2.28
-3.11
-6.90
-9.23
-10.55
-11.36
-12.05
-12.83
-13.71
-14.55
-15.20
-15.60
-15.79
-15.95
-16.34
-17.23
-18.80
-21.08
-23.91
-26.82
-29.17
-30.18
-29.19
-25.89
-20.48
-13.66
-6.50
-0.05
4.95
8.19
9.85
10.34
10.15
9.66
9.10
8.62
8.34
8.30
8.47
8.69
8.70
8.33
7.57
6.65
5.91
5.64
5.95
6.72
7.70
8.63
9.31
9.55
9.16
7.87
5.50
2.10
-1.91
-5.79
-8.72
-10.20
-10.33
-9.84
-9.76
-10.92
-13.45
-16.63
-19.17
-19.80
-17.91
-13.80
-8.48
-3.11
1.62
5.80
10.06
15.00
20.67
26.33
30.75
32.89
32.46
30.10
27.05
24.46
22.81
21.64
20.02
17.24
13.35
9.32
6.54
6.04
7.88
11.04
13.97
15.31
14.60
12.37
9.64
7.26
5.38
3.41
0.57
-3.51
-8.41
-13.05
-16.27
-17.46
-16.79
-15.02
-12.91
-10.74
-8.12
-4.43
0.72
6.96
13.21
18.09
20.62
20.62
18.82
16.37
14.25
12.84
11.87
10.80
9.33
7.61
6.27
5.93
6.77
8.30
9.54
9.56
7.94
5.04
1.72
-1.06
-2.78
-3.61
-4.26
-5.64
-8.39
-12.62
-17.85
-23.18
-27.69
-30.65
-31.78
-31.30
-29.83
-28.19
-27.17
-27.23
-28.43
-30.29
-32.06
-32.92
-32.30
-30.06
-26.41
-21.77
-16.56
-11.12
-5.73
-0.71
3.50
6.46
7.91
7.98
7.18
6.22
5.73
5.91
6.50
6.94
6.72
5.65
4.04
2.50
1.62
1.66
2.41
3.29
3.72
3.38
2.39
1.21
0.32
-0.11
-0.29
-0.73
-1.94
-4.05
-6.84
-9.78
-12.37
-14.40
-16.05
-17.72
-19.82
-22.43
-25.18
-27.39
-28.28
-27.39
-24.75
-20.86
-16.44
-12.11
-8.12
-4.32
-0.39
3.81
8.08
11.84
14.36
15.16
14.20
11.96
9.26
6.95
5.64
5.56
6.58
8.38
10.60
12.95
15.27
17.43
19.25
20.45
20.73
19.89
17.96
15.33
12.63
10.47
9.13
8.43
7.73
6.24
3.50
-0.35
-4.61
-8.34
-10.83
-11.98
-12.34
-12.76
-13.89
-15.82
-18.02
-19.59
-19.71
-18.02
-14.73
-10.42
-5.78
-1.32
2.72
6.27
9.23
11.34
12.24
11.64
9.57
6.46
3.13
0.38
-1.31
-1.99
-2.18
-2.53
-3.44
-4.78
-6.02
-6.47
-5.79
-4.20
-2.45
-1.45
-1.73
-3.17
-4.97
-6.11
-5.95
-4.58
-2.84
-1.95
-2.76
-5.39
-9.10
-12.79
-15.55
-17.15
-18.11
-19.25
-21.10
-23.50
-25.56
-26.11
-24.24
-19.84
-13.57
-6.48
0.50
6.97
13.00
18.85
24.44
29.20
32.17
32.47
29.82
24.83
18.82
13.40
9.82
8.54
9.16
10.67
11.94
12.22
11.45
10.09
8.87
8.23
8.12
8.02
7.19
5.23
2.22
-1.21
-4.26
-6.39
-7.50
-8.00
-8.43
-9.13
-10.05
-10.89
-11.36
-11.51
-11.84
-13.07
-15.66
-19.42
-23.42
-26.29
-26.79
-24.42
-19.68
-13.91
-8.60
-4.75
-2.39
-0.74
1.34
4.61
8.96
13.48
16.90
18.35
17.78
15.97
14.07
12.98
12.94
13.59
14.30
14.59
14.40
13.97
13.53
13.05
12.19
10.49
7.77
4.35
1.02
-1.32
-2.08
-1.33
0.19
1.41
1.42
-0.09
-2.70
-5.58
-7.89
-9.28
-10.04
-10.92
-12.66
-15.60
-19.37
-23.09
-25.65
-26.23
-24.61
-21.21
-16.85
-12.32
-8.15
-4.43
-1.03
2.10
4.74
6.35
6.43
4.87
2.13
-0.78
-2.77
-3.10
-1.74
0.67
3.26
5.33
6.71
7.67
8.64
9.82
10.91
11.30
10.38
7.93
4.34
0.45
-2.83
-4.93
-5.82
-5.96
-5.95
-6.20
-6.75
-7.40
-8.00
-8.71
-10.09
-12.82
-17.22
-22.90
-28.69
-33.02
-34.56
-32.77
-28.15
-21.93
-15.50
-9.83
-5.17
-1.24
2.36
5.74
8.62
10.55
11.27
10.97
10.21
9.57
9.29
9.19
8.88
8.22
7.54
7.59
9.08
12.11
15.96
19.28
20.72
19.54
16.03
11.28
6.68
3.28
1.37
0.58
0.20
-0.35
-1.24
-2.33
-3.42
-4.58
-6.15
-8.61
-12.20
-16.70
-21.41
-25.49
-28.28
-29.57
-29.51
-28.41
-26.49
-23.76
-20.16
-15.83
-11.27
-7.19
-4.20
-2.41
-1.28
0.10
2.53
6.18
10.40
14.03
16.05
16.08
14.60
12.71
11.45
11.29
11.95
12.66
12.72
11.92
10.68
9.72
9.57
10.19
10.89
10.64
8.64
4.72
-0.42
-5.57
-9.50
-11.47
-11.59
-10.63
-9.64
-9.48
-10.50
-12.52
-15.00
-17.34
-19.05
-19.80
-19.40
-17.68
-14.53
-9.96
-4.20
2.22
8.55
14.04
18.18
20.85
22.36
23.25
24.00
24.86
25.66
26.03
25.60
24.25
22.24
20.18
18.72
18.29
18.86
19.92
20.60
20.13
18.14
14.91
11.23
8.12
6.24
5.67
5.80
5.64
4.33
1.46
-2.73
-7.52
-12.05
-15.64
-17.99
-19.15
-19.48
-19.37
-19.23
-19.38
-20.00
-21.09
-22.40
-23.41
-23.42
-21.85
-18.37
-13.16
-6.82
-0.19
5.91
10.92
14.49
16.53
17.05
16.24
14.52
12.66
11.54
11.88
13.91
17.11
20.47
22.88
23.62
22.69
20.70
18.53
16.82
15.72
14.94
14.01
12.62
10.79
8.81
6.94
5.28
3.62
1.61
-1.01
-4.21
-7.63
-10.84
-13.51
-15.75
-18.04
-21.02
-25.06
-29.96
-34.78
-38.16
-38.80
-36.10
-30.44
-23.14
-15.90
-10.09
-6.25
-3.94
-2.18
-0.07
2.70
5.70
8.04
9.00
8.42
6.90
5.40
4.83
5.54
7.22
9.10
10.40
10.77
10.37
9.78
9.57
9.97
10.71
11.15
10.70
9.14
6.80
4.40
2.66
1.84
1.64
1.38
0.38
-1.53
-3.96
-6.18
-7.65
-8.32
-8.68
-9.36
-10.56
-11.72
-11.69
-9.29
-4.04
3.47
11.70
18.90
23.85
26.41
27.39
27.98
28.93
30.13
30.75
29.86
27.17
23.36
19.81
17.86
17.96
19.39
20.52
19.70
16.14
10.26
3.41
-2.88
-7.68
-10.92
-13.18
-15.08
-16.91
-18.44
-19.36
-19.56
-19.38
-19.43
-20.20
-21.75
-23.71
-25.48
-26.55
-26.77
-26.33
-25.56
-24.77
-23.97
-22.86
-20.92
-17.62
-12.77
-6.61
0.09
6.34
11.24
14.37
15.91
16.44
16.62
16.88
17.29
17.64
17.74
17.59
17.43
17.58
18.25
19.30
20.33
20.83
20.44
19.19
17.48
15.82
14.59
13.71
12.73
11.03
8.25
4.58
0.67
-2.65
-4.88
-6.17
-7.25
-9.05
-12.20
-16.68
-21.74
-26.22
-29.00
-29.29
-26.76
-21.48
-13.76
-4.17
6.44
16.83
25.54
31.12
32.69
30.26
24.85
18.15
11.96
7.54
5.24
4.63
4.87
5.21
5.33
5.35
5.51
5.90
6.28
6.24
5.49
4.12
2.67
1.80
1.94
2.89
3.89
3.91
2.12
-1.68
-6.97
-12.76
-17.96
-21.79
-24.01
-24.85
-24.75
-24.12
-23.13
-21.74
-19.79
-17.19
-14.03
-10.56
-7.06
-3.70
-0.48
2.69
5.81
8.59
10.45
10.78
9.24
6.12
2.32
-0.92
-2.49
-1.87
0.63
4.04
7.10
8.79
8.67
6.92
4.24
1.51
-0.53
-1.48
-1.36
-0.49
0.60
1.31
1.12
-0.31
-3.07
-6.93
-11.26
-15.18
-17.76
-18.24
-16.27
-12.05
-6.25
0.25
6.59
12.20
16.81
20.39
22.98
24.54
25.01
24.37
22.78
20.60
18.31
16.29
14.62
13.08
11.28
8.99
6.33
3.81
2.08
1.62
2.40
3.84
5.02
5.07
3.59
0.83
-2.47
-5.49
-7.72
-9.26
-10.74
-12.92
-16.21
-20.39
-24.62
-27.85
-29.26
-28.53
-25.89
-21.81
-16.78
-11.09
-4.96
1.38
7.55
13.05
17.45
20.47
22.11
22.60
22.35
21.79
21.28
21.00
20.92
20.85
20.56
19.94
19.10
18.27
17.65
17.24
16.82
16.07
14.76
12.97
11.00
9.27
8.02
7.21
6.53
5.56
3.94
1.56
-1.35
-4.33
-6.84
-8.47
-9.08
-8.87
-8.25
-7.68
-7.41
-7.52
-7.87
-8.40
-9.19
-10.47
-12.46
-15.21
-18.51
-21.96
-25.18
-27.98
-30.34
-32.30
-33.78
-34.42
-33.71
-31.15
-26.56
-20.19
-12.74
-5.14
1.69
7.04
10.63
12.54
13.22
13.30
13.38
13.85
14.77
15.87
16.73
16.92
16.20
14.64
12.54
10.36
8.54
7.32
6.75
6.63
6.68
6.67
6.55
6.50
6.78
7.61
8.95
10.48
11.70
12.09
11.28
9.17
5.85
1.62
-3.10
-7.74
-11.68
-14.41
-15.71
-15.82
-15.37
-15.16
-15.80
-17.42
-19.54
-21.32
-21.85
-20.59
-17.52
-13.14
-8.24
-3.52
0.61
4.20
7.44
10.53
13.35
15.53
16.66
16.55
15.45
13.98
12.84
12.38
12.54
12.84
12.75
12.02
10.82
9.63
8.98
9.10
9.85
10.89
11.84
12.52
13.02
13.54
14.26
15.17
16.10
16.71
16.71
15.87
14.11
11.52
8.31
4.83
1.45
-1.61
-4.30
-6.79
-9.42
-12.45
-15.98
-19.87
-23.79
-27.24
-29.68
-30.54
-29.31
-25.74
-19.93
-12.54
-4.66
2.43
7.73
10.76
11.72
11.34
10.44
9.67
9.31
9.33
9.62
10.12
10.89
11.97
13.29
14.52
15.25
15.16
14.25
12.90
11.70
11.19
11.50
12.31
12.93
12.73
11.44
9.36
7.17
5.58
4.98
5.24
5.85
6.18
5.85
4.75
3.11
1.16
-0.97
-3.33
-6.05
-9.16
-12.49
-15.66
-18.15
-19.44
-19.16
-17.22
-13.85
-9.53
-4.98
-0.95
1.97
3.44
3.54
2.68
1.51
0.65
0.51
1.11
2.18
3.30
4.10
4.41
4.22
3.57
2.51
1.08
-0.51
-1.88
-2.59
-2.36
-1.34
-0.09
0.70
0.54
-0.61
-2.30
-3.91
-5.03
-5.57
-5.76
-5.93
-6.27
-6.77
-7.36
-7.96
-8.60
-9.39
-10.38
-11.48
-12.43
-12.87
-12.52
-11.23
-9.09
-6.38
-3.50
-0.81
1.40
2.97
3.86
4.05
3.57
2.41
0.65
-1.51
-3.72
-5.50
-6.43
-6.32
-5.31
-3.85
-2.49
-1.56
-1.06
-0.64
0.09
1.29
2.69
3.67
3.58
2.17
-0.25
-2.94
-5.08
-6.25
-6.55
-6.59
-7.01
-8.12
-9.76
-11.40
-12.50
-12.86
-12.72
-12.47
-12.41
-12.40
-11.99
-10.66
-8.26
-5.17
-2.21
-0.21
0.39
-0.21
-1.30
-2.06
-1.95
-0.98
0.29
1.12
0.97
-0.14
-1.65
-2.77
-2.85
-1.76
0.02
1.69
2.54
2.34
1.44
0.52
0.17
0.51
1.06
1.01
-0.29
-2.88
-6.12
-8.93
-10.37
-10.11
-8.62
-6.95
-6.13
-6.74
-8.56
-10.68
-11.99
-11.67
-9.56
-6.25
-2.78
-0.18
0.96
0.71
-0.26
-1.03
-0.93
0.14
1.74
3.09
3.53
2.89
1.50
0.08
-0.73
-0.60
0.30
1.50
2.43
2.81
2.67
2.29
1.95
1.70
1.35
0.54
-0.93
-2.99
-5.17
-6.91
-7.79
-7.78
-7.23
-6.66
-6.51
-6.85
-7.46
-7.92
-7.95
-7.57
-7.07
-6.85
-7.09
-7.59
-7.80
-7.11
-5.21
-2.40
0.46
2.37
2.70
1.74
0.62
0.88
3.62
8.83
15.22
20.65
23.16
21.77
16.96
10.36
4.01
-0.56
-2.86
-3.34
-2.94
-2.45
-2.14
-1.81
-1.18
-0.22
0.68
0.96
0.24
-1.41
-3.40
-4.96
-5.57
-5.21
-4.29
-3.44
-3.09
-3.29
-3.76
-4.21
-4.51
-4.80
-5.36
-6.29
-7.39
-8.19
-8.20
-7.23
-5.42
-3.24
-1.18
0.49
1.80
3.00
4.26
5.55
6.59
7.00
6.61
5.52
4.13
2.92
2.18
1.91
1.87
1.80
1.63
1.55
1.87
2.73
3.98
5.09
5.49
4.83
3.20
1.08
-0.91
-2.34
-3.11
-3.44
-3.72
-4.18
-4.86
-5.57
-6.06
-6.21
-6.12
-6.05
-6.31
-7.07
-8.15
-9.14
-9.51
-8.86
-7.13
-4.63
-1.88
0.64
2.67
4.19
5.32
6.09
6.45
6.26
5.48
4.33
3.19
2.48
2.46
3.05
3.89
4.52
4.61
4.14
3.37
2.63
2.13
1.87
1.64
1.17
0.37
-0.69
-1.71
-2.44
-2.78
-2.91
-3.10
-3.59
-4.45
-5.47
-6.36
-6.91
-7.14
-7.27
-7.66
-8.53
-9.85
-11.29
-12.35
-12.53
-11.58
-9.51
-6.63
-3.39
-0.25
2.44
4.50
5.92
6.77
7.15
7.14
6.79
6.11
5.19
4.17
3.28
2.74
2.69
3.06
3.67
4.25
4.62
4.79
4.90
5.08
5.30
5.28
4.66
3.22
1.09
-1.29
-3.34
-4.69
-5.34
-5.65
-6.10
-6.97
-8.25
-9.70
-11.16
-12.65
-14.42
-16.68
-19.30
-21.74
-23.19
-22.94
-20.74
-16.92
-12.28
-7.70
-3.81
-0.80
1.47
3.27
4.76
5.98
6.81
7.16
7.06
6.65
6.10
5.60
5.25
5.09
5.13
5.37
5.79
6.37
6.98
7.45
7.60
7.28
6.41
4.97
3.03
0.70
-1.79
-4.13
-5.93
-6.89
-6.88
-6.12
-5.13
-4.60
-5.15
-7.11
-10.38
-14.44
-18.53
-21.78
-23.46
-23.13
-20.78
-16.81
-11.92
-6.94
-2.50
1.05
3.69
5.59
6.98
7.97
8.58
8.80
8.75
8.63
8.70
9.22
10.27
11.70
13.22
14.49
15.26
15.39
14.94
14.02
12.82
11.49
10.12
8.71
7.17
5.42
3.40
1.15
-1.15
-3.30
-5.10
-6.50
-7.64
-8.87
-10.58
-13.00
-16.05
-19.29
-21.98
-23.29
-22.62
-19.80
-15.12
-9.23
-2.97
2.95
7.96
11.73
14.07
14.95
14.49
13.04
11.14
9.41
8.34
8.05
8.33
8.68
8.74
8.41
7.96
7.88
8.52
9.81
11.27
12.20
12.09
10.84
8.82
6.65
4.75
3.17
1.60
-0.39
-3.00
-6.05
-9.03
-11.47
-13.19
-14.42
-15.59
-16.94
-18.24
-18.74
-17.52
-14.00
-8.38
-1.63
4.81
9.70
12.50
13.48
13.49
13.37
13.53
13.84
13.82
13.09
11.70
10.11
9.00
8.81
9.59
10.90
12.09
12.68
12.48
11.71
10.76
9.97
9.44
9.02
8.41
7.43
6.06
4.52
3.09
1.95
0.99
-0.15
-1.94
-4.73
-8.54
-12.90
-17.04
-20.11
-21.51
-21.00
-18.75
-15.13
-10.43
-4.82
1.70
8.98
16.57
23.61
28.94
31.48
30.68
26.74
20.60
13.60
7.02
1.68
-2.11
-4.45
-5.52
-5.36
-3.95
-1.38
1.95
5.21
7.42
7.83
6.28
3.34
0.03
-2.68
-4.28
-4.91
-5.14
-5.54
-6.26
-7.05
-7.46
-7.36
-7.15
-7.56
-9.19
-11.92
-14.79
-16.32
-15.26
-11.29
-5.22
1.37
6.93
10.65
12.66
13.74
14.68
15.69
16.30
15.74
13.48
9.69
5.24
1.39
-0.80
-0.88
0.87
3.65
6.52
8.74
9.97
10.20
9.64
8.47
6.80
4.61
1.91
-1.19
-4.35
-7.13
-9.11
-10.16
-10.56
-10.93
-11.97
-14.08
-16.99
-19.80
-21.25
-20.24
-16.39
-10.20
-2.91
4.09
9.76
13.78
16.44
18.23
19.43
19.87
19.07
16.64
12.70
8.03
3.85
1.28
0.88
2.37
4.92
7.58
9.72
11.29
12.52
13.57
14.18
13.81
11.89
8.37
3.86
-0.54
-3.82
-5.63
-6.45
-7.41
-9.64
-13.71
-19.32
-25.39
-30.48
-33.32
-33.27
-30.38
-25.36
-19.23
-12.93
-7.05
-1.74
3.17
7.84
12.15
15.64
17.73
18.06
16.82
14.69
12.59
11.17
10.55
10.33
10.01
9.29
8.37
7.80
8.01
8.98
10.15
10.63
9.70
7.23
3.76
0.23
-2.48
-4.03
-4.69
-5.17
-6.26
-8.37
-11.41
-14.97
-18.49
-21.61
-24.10
-25.74
-26.14
-24.75
-21.08
-15.01
-7.08
1.57
9.55
15.68
19.42
20.94
20.93
20.11
18.92
17.43
15.48
13.00
10.25
7.84
6.41
6.41
7.78
9.98
12.19
13.66
13.94
13.01
11.18
8.88
6.42
3.89
1.16
-1.97
-5.54
-9.32
-12.81
-15.46
-17.05
-17.89
-18.75
-20.54
-23.77
-28.09
-32.26
-34.58
-33.54
-28.55
-20.18
-10.00
0.04
8.38
14.29
17.93
20.10
21.60
22.86
23.78
23.86
22.69
20.26
17.16
14.32
12.69
12.69
14.12
16.20
18.02
18.89
18.64
17.51
15.92
14.16
12.24
9.97
7.22
4.11
1.06
-1.44
-3.17
-4.36
-5.65
-7.79
-11.24
-15.87
-21.00
-25.63
-28.89
-30.30
-29.79
-27.54
-23.77
-18.59
-12.11
-4.63
3.25
10.65
16.67
20.69
22.59
22.78
21.88
20.51
19.02
17.51
16.00
14.56
13.44
12.94
13.24
14.21
15.44
16.33
16.34
15.18
12.88
9.79
6.41
3.22
0.55
-1.52
-3.20
-4.85
-6.88
-9.52
-12.75
-16.40
-20.19
-23.92
-27.45
-30.55
-32.85
-33.73
-32.54
-28.87
-22.78
-14.94
-6.39
1.76
8.70
14.07
17.91
20.45
21.86
22.19
21.39
19.49
16.76
13.70
10.95
9.08
8.34
8.62
9.51
10.50
11.19
11.32
10.83
9.70
7.99
5.76
3.12
0.30
-2.47
-5.03
-7.39
-9.71
-12.28
-15.40
-19.27
-23.94
-29.17
-34.44
-38.97
-41.88
-42.46
-40.51
-36.46
-31.22
-25.85
-21.10
-17.24
-14.09
-11.39
-9.04
-7.32
-6.56
-6.90
-8.00
-9.07
-9.22
-7.88
-5.09
-1.42
2.30
5.34
7.36
8.35
8.56
8.28
7.67
6.75
5.46
3.71
1.48
-1.22
-4.26
-7.40
-10.23
-12.19
-12.61
-10.87
-6.56
0.25
8.97
18.60
27.91
35.85
41.73
45.36
46.92
46.82
45.49
43.26
40.29
36.68
32.50
27.91
23.17
18.66
14.81
11.91
10.03
8.79
7.55
5.57
2.40
-1.90
-6.62
-10.60
-12.62
-11.89
-8.41
-2.96
3.03
8.02
10.73
10.51
7.33
1.64
-5.81
-14.18
-22.54
-29.93
-35.38
-38.13
-37.75
-34.38
-28.63
-21.39
-13.61
-5.97
1.19
7.79
13.88
19.40
24.15
27.78
29.96
30.52
29.51
27.27
24.35
21.42
19.18
18.15
18.50
19.98
21.89
23.24
23.09
20.83
16.45
10.52
3.96
-2.32
-7.65
-11.87
-15.18
-17.95
-20.52
-23.09
-25.79
-28.68
-31.80
-35.03
-37.94
-39.70
-39.23
-35.65
-28.69
-19.04
-8.19
2.03
10.18
15.61
18.60
20.04
20.74
21.13
21.09
20.24
18.29
15.38
12.04
8.97
6.75
5.54
5.20
5.36
5.70
6.10
6.60
7.29
8.19
9.08
9.62
9.48
8.43
6.43
3.61
0.24
-3.37
-6.91
-10.18
-13.11
-15.83
-18.58
-21.62
-25.10
-28.92
-32.79
-36.23
-38.72
-39.75
-38.90
-35.86
-30.51
-22.99
-13.82
-3.86
5.90
14.49
21.26
26.03
28.99
30.56
31.12
30.89
29.86
28.02
25.45
22.51
19.76
17.77
16.87
16.93
17.48
17.91
17.77
16.98
15.78
14.55
13.49
12.42
10.85
8.22
4.30
-0.59
-5.71
-10.16
-13.40
-15.56
-17.38
-19.90
-23.99
-29.89
-37.03
-44.16
-49.68
-52.11
-50.52
-44.86
-35.84
-24.76
-13.05
-1.90
7.96
16.21
22.73
27.40
30.10
30.86
30.03
28.35
26.72
25.79
25.75
26.22
26.55
26.25
25.20
23.69
22.20
21.00
20.00
18.82
17.09
14.78
12.20
9.94
8.38
7.49
6.71
5.34
2.82
-0.80
-4.97
-8.81
-11.63
-13.27
-14.17
-15.13
-16.92
-19.90
-23.86
-28.18
-32.02
-34.70
-35.76
-34.99
-32.27
-27.41
-20.23
-10.75
0.49
12.29
23.01
31.07
35.66
37.09
36.63
36.00
36.44
38.25
40.70
42.57
42.85
41.15
37.81
33.52
28.95
24.42
20.04
15.82
11.86
8.35
5.38
2.85
0.45
-2.22
-5.42
-9.15
-13.15
-16.99
-20.24
-22.63
-24.15
-25.04
-25.76
-26.90
-28.97
-32.19
-36.38
-40.88
-44.73
-46.91
-46.62
-43.47
-37.58
-29.53
-20.15
-10.37
-1.09
6.96
13.24
17.48
19.69
20.08
19.07
17.11
14.68
12.19
9.99
8.41
7.68
7.87
8.82
10.16
11.29
11.65
10.92
9.07
6.44
3.55
0.93
-1.11
-2.57
-3.68
-4.81
-6.23
-8.08
-10.26
-12.55
-14.74
-16.77
-18.82
-21.29
-24.58
-28.78
-33.48
-37.67
-40.08
-39.55
-35.56
-28.54
-19.71
-10.64
-2.72
3.37
7.72
10.92
13.65
16.22
18.51
20.04
20.39
19.47
17.68
15.70
14.23
13.62
13.75
14.19
14.39
14.06
13.25
12.33
11.73
11.63
11.83
11.79
10.86
8.69
5.41
1.59
-1.93
-4.51
-5.96
-6.57
-6.94
-7.68
-9.19
-11.61
-14.90
-18.89
-23.29
-27.53
-30.75
-31.94
-30.26
-25.45
-18.05
-9.32
-0.82
6.18
11.08
14.07
15.81
17.02
18.09
18.99
19.33
18.79
17.27
15.07
12.77
11.02
10.26
10.60
11.74
13.17
14.31
14.75
14.34
13.20
11.59
9.76
7.72
5.31
2.27
-1.51
-5.76
-9.87
-13.10
-14.97
-15.53
-15.47
-15.80
-17.38
-20.57
-24.96
-29.61
-33.44
-35.69
-36.05
-34.65
-31.74
-27.48
-21.85
-14.86
-6.80
1.63
9.37
15.36
18.94
20.07
19.32
17.58
15.67
14.04
12.73
11.53
10.30
9.11
8.25
8.09
8.74
9.94
11.15
11.78
11.61
10.81
9.93
9.44
9.44
9.47
8.78
6.73
3.22
-1.21
-5.62
-9.17
-11.58
-13.22
-14.90
-17.39
-20.92
-25.01
-28.63
-30.66
-30.31
-27.47
-22.61
-16.63
-10.41
-4.55
0.72
5.45
9.67
13.29
15.96
17.25
16.92
15.12
12.46
9.79
7.90
7.15
7.35
7.95
8.34
8.21
7.71
7.27
7.24
7.57
7.83
7.36
5.77
3.17
0.14
-2.61
-4.62
-5.96
-7.10
-8.58
-10.71
-13.44
-16.49
-19.60
-22.65
-25.48
-27.79
-28.92
-28.09
-24.74
-18.94
-11.45
-3.52
3.60
9.08
12.70
14.76
15.81
16.30
16.43
16.16
15.34
13.91
12.02
10.03
8.30
7.12
6.52
6.35
6.33
6.24
5.95
5.45
4.73
3.72
2.30
0.34
-2.20
-5.23
-8.59
-12.13
-15.71
-19.26
-22.67
-25.85
-28.76
-31.52
-34.36
-37.56
-41.17
-44.76
-47.39
-47.77
-44.84
-38.22
-28.49
-17.12
-5.89
3.78
11.21
16.60
20.61
23.87
26.64
28.75
29.92
30.07
29.60
29.27
29.77
31.36
33.66
35.79
36.84
36.40
34.71
32.58
30.87
30.05
29.90
29.70
28.62
26.20
22.59
18.38
14.23
10.51
7.20
4.00
0.58
-3.12
-6.95
-10.70
-14.27
-17.76
-21.42
-25.39
-29.48
-33.13
-35.48
-35.68
-33.15
-27.87
-20.37
-11.67
-2.98
4.57
10.15
13.39
14.43
13.76
12.03
9.86
7.67
5.71
4.15
3.14
2.88
3.45
4.75
6.40
7.85
8.58
8.38
7.38
5.94
4.44
3.03
1.62
-0.01
-1.98
-4.17
-6.31
-8.15
-9.65
-11.08
-12.87
-15.35
-18.57
-22.16
-25.49
-27.90
-28.85
-28.11
-25.66
-21.63
-16.27
-9.82
-2.68
4.61
11.40
17.01
20.97
23.13
23.67
23.04
21.76
20.26
18.79
17.41
16.14
15.00
14.05
13.37
13.03
12.99
13.16
13.37
13.36
12.86
11.62
9.48
6.48
2.91
-0.73
-3.93
-6.37
-8.05
-9.30
-10.65
-12.64
-15.64
-19.73
-24.67
-29.92
-34.67
-38.00
-39.08
-37.42
-33.07
-26.66
-19.23
-11.84
-5.26
0.28
4.94
9.12
13.01
16.48
19.12
20.44
20.24
18.77
16.65
14.68
13.43
13.06
13.31
13.71
13.85
13.58
13.01
12.35
11.64
10.73
9.28
7.04
4.02
0.62
-2.61
-5.17
-6.90
-8.04
-9.02
-10.27
-11.93
-13.93
-16.14
-18.49
-21.06
-23.94
-26.93
-29.47
-30.75
-29.99
-26.81
-21.50
-14.83
-7.82
-1.34
4.15
8.58
12.05
14.59
16.05
16.19
14.98
12.71
10.10
8.01
7.07
7.40
8.57
9.93
10.90
11.33
11.47
11.72
12.28
12.98
13.29
12.68
10.88
8.11
4.95
2.09
0.00
-1.31
-2.28
-3.52
-5.55
-8.57
-12.35
-16.47
-20.43
-23.84
-26.41
-27.79
-27.57
-25.29
-20.70
-13.97
-5.84
2.57
10.02
15.65
19.20
21.02
21.77
22.09
22.29
22.23
21.57
20.04
17.68
14.94
12.48
10.92
10.54
11.20
12.36
13.39
13.73
13.10
11.46
8.94
5.77
2.20
-1.53
-5.13
-8.37
-11.09
-13.30
-15.15
-16.96
-18.99
-21.45
-24.36
-27.53
-30.64
-33.25
-34.90
-35.10
-33.50
-29.99
-24.82
-18.60
-12.15
-6.20
-1.12
3.17
7.08
10.93
14.69
17.90
19.93
20.40
19.56
18.24
17.52
18.22
20.52
23.90
27.43
30.21
31.66
31.66
30.41
28.22
25.39
22.07
18.36
14.35
10.15
5.98
2.18
-0.84
-2.76
-3.52
-3.52
-3.63
-4.99
-8.56
-14.65
-22.64
-31.09
-38.28
-42.80
-44.02
-42.14
-37.91
-32.11
-25.29
-17.75
-9.77
-1.85
5.27
10.77
14.15
15.42
15.10
13.99
12.85
12.12
11.86
11.82
11.71
11.36
10.83
10.47
10.63
11.53
13.02
14.59
15.55
15.38
14.05
12.03
10.12
9.04
9.03
9.79
10.70
11.18
10.93
9.97
8.37
6.08
2.84
-1.55
-7.03
-13.11
-19.03
-24.13
-28.16
-31.31
-34.00
-36.42
-38.30
-38.89
-37.38
-33.32
-27.01
-19.40
-11.80
-5.30
-0.51
2.61
4.52
5.75
6.63
7.22
7.43
7.24
6.85
6.61
6.82
7.58
8.63
9.48
9.62
8.79
7.15
5.16
3.37
2.13
1.37
0.69
-0.44
-2.32
-4.87
-7.61
-9.94
-11.44
-12.14
-12.48
-13.14
-14.68
-17.32
-20.87
-24.83
-28.59
-31.60
-33.43
-33.81
-32.51
-29.34
-24.16
-17.02
-8.30
1.25
10.53
18.40
23.95
26.75
27.04
25.58
23.37
21.28
19.78
18.91
18.37
17.93
17.54
17.48
18.12
19.65
21.85
24.05
25.33
24.88
22.30
17.78
11.99
5.81
0.04
-4.82
-8.61
-11.41
-13.41
-14.78
-15.67
-16.21
-16.65
-17.35
-18.74
-21.12
-24.44
-28.20
-31.51
-33.33
-32.82
-29.66
-24.26
-17.58
-10.75
-4.71
0.19
4.22
8.04
12.21
16.78
21.18
24.42
25.61
24.46
21.57
18.22
15.78
15.09
16.15
18.15
19.99
20.85
20.56
19.56
18.54
17.98
17.88
17.85
17.38
16.17
14.28
12.00
9.60
7.17
4.60
1.74
-1.46
-4.86
-8.28
-11.63
-15.00
-18.58
-22.46
-26.38
-29.73
-31.68
-31.52
-28.97
-24.34
-18.36
-11.93
-5.73
0.02
5.46
10.85
16.21
21.07
24.55
25.71
24.05
19.87
14.26
8.72
4.57
2.45
2.10
2.73
3.45
3.80
3.89
4.17
4.95
6.16
7.23
7.38
6.04
3.15
-0.80
-5.00
-8.61
-11.12
-12.38
-12.62
-12.26
-11.69
-11.23
-11.06
-11.34
-12.25
-14.07
-17.02
-21.10
-25.86
-30.33
-33.24
-33.34
-29.99
-23.36
-14.56
-5.20
3.19
9.64
14.03
16.84
18.76
20.14
20.87
20.54
18.88
16.17
13.21
10.99
10.18
10.80
12.24
13.64
14.37
14.35
13.88
13.35
12.88
12.14
10.60
7.81
3.75
-1.09
-5.86
-9.74
-12.27
-13.52
-14.06
-14.60
-15.77
-17.77
-20.36
-23.01
-25.17
-26.41
-26.54
-25.48
-23.15
-19.47
-14.39
-8.13
-1.28
5.31
10.74
14.41
16.25
16.74
16.63
16.61
16.96
17.55
18.03
18.08
17.71
17.19
16.88
16.94
17.23
17.41
17.12
16.28
15.15
14.22
13.91
14.29
15.00
15.37
14.71
12.69
9.44
5.51
1.56
-1.98
-5.20
-8.67
-13.08
-18.81
-25.64
-32.64
-38.57
-42.31
-43.28
-41.54
-37.65
-32.32
-26.18
-19.64
-12.99
-6.56
-0.75
4.00
7.40
9.39
10.18
10.11
9.49
8.53
7.41
6.32
5.51
5.28
5.82
7.08
8.71
10.20
11.00
10.78
9.51
7.41
4.82
2.04
-0.75
-3.47
-6.07
-8.42
-10.36
-11.75
-12.62
-13.26
-14.15
-15.80
-18.50
-22.15
-26.14
-29.52
-31.25
-30.53
-27.10
-21.34
-14.16
-6.67
0.07
5.43
9.22
11.69
13.25
14.26
14.94
15.32
15.45
15.40
15.31
15.32
15.42
15.45
15.17
14.42
13.25
11.93
10.90
10.47
10.74
11.45
12.13
12.27
11.54
9.88
7.51
4.80
2.07
-0.50
-2.92
-5.33
-7.88
-10.69
-13.78
-17.19
-20.98
-25.17
-29.59
-33.76
-36.79
-37.65
-35.55
-30.30
-22.54
-13.53
-4.67
3.02
9.24
14.27
18.65
22.62
26.01
28.27
28.91
27.86
25.62
23.05
20.96
19.76
19.33
19.15
18.63
17.46
15.71
13.76
12.03
10.72
9.71
8.58
6.92
4.53
1.63
-1.23
-3.48
-4.82
-5.46
-6.08
-7.54
-10.38
-14.58
-19.50
-24.12
-27.52
-29.22
-29.28
-28.07
-25.92
-22.93
-18.94
-13.84
-7.83
-1.54
4.11
8.32
10.71
11.52
11.42
11.21
11.39
12.01
12.70
12.90
12.20
10.52
8.23
5.91
4.14
3.29
3.36
4.04
4.89
5.54
5.82
5.76
5.49
5.09
4.48
3.47
1.78
-0.68
-3.79
-7.09
-9.99
-11.99
-12.96
-13.26
-13.63
-14.86
-17.36
-20.83
-24.28
-26.43
-26.25
-23.43
-18.47
-12.45
-6.43
-1.01
3.84
8.49
13.32
18.22
22.59
25.51
26.28
24.78
21.66
18.14
15.47
14.48
15.19
16.92
18.66
19.64
19.67
19.13
18.69
18.75
19.17
19.34
18.57
16.53
13.54
10.39
7.88
6.37
5.51
4.40
2.09
-1.97
-7.61
-14.06
-20.30
-25.43
-28.99
-30.92
-31.42
-30.62
-28.53
-25.03
-20.06
-13.89
-7.12
-0.60
4.82
8.50
10.19
9.95
8.10
5.07
1.32
-2.66
-6.33
-9.10
-10.52
-10.41
-8.95
-6.68
-4.32
-2.48
-1.51
-1.45
-2.09
-3.19
-4.61
-6.26
-8.14
-10.14
-12.03
-13.47
-14.12
-13.78
-12.47
-10.39
-7.91
-5.46
-3.38
-1.94
-1.15
-0.83
-0.53
0.35
2.38
5.94
10.96
16.87
22.72
27.52
30.58
31.83
31.78
31.29
31.09
31.51
32.38
33.25
33.67
33.44
32.65
31.52
30.18
28.64
26.79
24.62
22.28
20.04
18.18
16.82
15.88
15.15
14.38
13.46
12.37
11.15
9.78
8.18
6.22
3.86
1.16
-1.67
-4.46
-7.16
-9.93
-13.01
-16.48
-20.02
-22.84
-23.95
-22.50
-18.28
-11.86
-4.51
2.34
7.55
10.73
12.19
12.67
12.92
13.27
13.55
13.26
11.99
9.78
7.26
5.31
4.67
5.39
6.85
7.99
7.96
6.61
4.54
2.75
2.03
2.46
3.29
3.43
1.97
-1.31
-5.87
-10.68
-14.79
-17.72
-19.66
-21.21
-22.86
-24.60
-25.72
-25.06
-21.60
-15.11
-6.37
3.01
11.22
16.99
20.02
20.85
20.38
19.27
17.65
15.24
11.83
7.65
3.43
0.12
-1.64
-1.89
-1.37
-1.11
-1.87
-3.70
-6.01
-7.86
-8.57
-8.07
-6.96
-6.14
-6.34
-7.72
-9.90
-12.19
-14.08
-15.49
-16.79
-18.40
-20.43
-22.43
-23.51
-22.79
-19.86
-15.01
-9.15
-3.39
1.47
5.18
7.99
10.33
12.37
13.83
14.15
12.76
9.50
4.78
-0.51
-5.37
-9.08
-11.44
-12.70
-13.31
-13.55
-13.30
-12.26
-10.21
-7.36
-4.42
-2.37
-1.95
-3.22
-5.52
-7.71
-8.84
-8.63
-7.64
-6.94
-7.47
-9.45
-12.16
-14.32
-14.65
-12.49
-8.09
-2.38
3.52
8.73
12.97
16.34
19.10
21.27
22.64
22.83
21.61
19.14
15.96
12.81
10.38
8.93
8.29
7.97
7.48
6.61
5.55
4.64
4.11
3.89
3.65
2.99
1.80
0.25
-1.28
-2.58
-3.86
-5.77
-9.07
-14.27
-21.24
-29.23
-37.10
-43.73
-48.34
-50.62
-50.59
-48.40
-44.12
-37.77
-29.49
-19.76
-9.56
-0.21
6.97
11.13
12.21
10.90
8.36
5.80
4.02
3.34
3.67
4.76
6.44
8.66
11.37
14.33
17.03
18.85
19.30
18.34
16.47
14.47
13.05
12.45
12.39
12.20
11.25
9.37
6.87
4.32
2.14
0.27
-1.83
-4.80
-8.90
-13.62
-17.75
-19.86
-19.02
-15.27
-9.72
-4.05
0.18
2.22
2.40
1.78
1.58
2.48
4.29
6.21
7.23
6.82
5.20
3.18
1.77
1.56
2.50
3.89
4.91
5.07
4.53
3.95
4.06
5.16
6.87
8.30
8.50
6.93
3.77
-0.23
-4.14
-7.27
-9.42
-10.80
-11.81
-12.76
-13.78
-14.90
-16.21
-17.94
-20.33
-23.40
-26.72
-29.46
-30.59
-29.31
-25.46
-19.60
-12.79
-6.17
-0.54
3.83
7.13
9.69
11.71
13.09
13.59
13.10
11.81
10.30
9.28
9.26
10.26
11.71
12.76
12.66
11.22
8.92
6.69
5.42
5.51
6.58
7.65
7.62
5.83
2.41
-1.76
-5.49
-7.83
-8.53
-8.11
-7.63
-8.10
-10.05
-13.28
-16.95
-19.95
-21.36
-20.77
-18.35
-14.74
-10.69
-6.76
-3.14
0.31
3.84
7.59
11.35
14.64
16.92
17.87
17.53
16.33
14.82
13.38
12.10
10.83
9.34
7.59
5.79
4.32
3.51
3.43
3.83
4.25
4.26
3.66
2.60
1.45
0.56
0.02
-0.42
-1.18
-2.62
-4.75
-7.15
-9.20
-10.45
-10.93
-11.20
-12.12
-14.32
-17.79
-21.72
-24.89
-26.12
-24.87
-21.30
-16.19
-10.43
-4.73
0.56
5.39
9.73
13.45
16.29
18.00
18.45
17.81
16.43
14.81
13.39
12.45
12.02
11.91
11.85
11.65
11.24
10.73
10.27
9.96
9.68
9.21
8.32
6.91
5.09
3.12
1.28
-0.26
-1.50
-2.55
-3.62
-4.90
-6.53
-8.47
-10.63
-12.85
-15.00
-17.11
-19.28
-21.73
-24.44
-27.10
-29.04
-29.42
-27.62
-23.52
-17.63
-10.91
-4.47
0.85
4.61
6.80
7.65
7.49
6.69
5.65
4.82
4.59
5.22
6.69
8.68
10.74
12.47
13.69
14.43
14.84
15.01
14.91
14.36
13.19
11.37
9.03
6.40
3.77
1.35
-0.71
-2.35
-3.64
-4.71
-5.80
-7.21
-9.18
-11.75
-14.74
-17.74
-20.20
-21.62
-21.63
-20.06
-16.94
-12.52
-7.17
-1.36
4.40
9.74
14.40
18.28
21.35
23.53
24.78
25.18
25.02
24.84
25.21
26.55
28.85
31.70
34.47
36.70
38.33
39.75
41.62
44.49
48.55
53.45
58.42
62.58
65.14
65.64
63.99
60.42
55.35
49.31
42.84
36.38
30.23
24.45
18.76
12.63
5.47
-3.08
-12.84
-23.07
-32.71
-40.77
-46.79
-50.92
-53.82
-56.31
-59.08
-62.58
-67.16
-73.24
-81.27
-91.53
-103.79
-116.95
-129.33
-139.14
-145.18
-147.37
-146.78
-145.11
-143.88
-143.93
-145.18
-147.05
-148.94
-150.56
-152.03
-153.60
-155.30
-156.79
-157.33
-155.87
-151.13
-141.57
-125.37
-100.50
-65.23
-18.97
36.83
98.27
159.46
213.83
255.98
283.09
295.53
296.29
289.65
279.72
269.53
260.73
253.75
248.04
242.31
234.74
223.33
206.57
184.10
157.08
128.13
100.73
78.41
63.82
58.02
60.22
68.01
77.98
86.59
90.93
89.15
80.60
65.70
45.73
22.72
-0.71
-21.72
-37.82
-47.47
-50.52
-48.13
-42.27
-35.06
-28.19
-22.61
-18.66
-16.22
-15.04
-14.98
-15.96
-17.93
-20.51
-22.95
-24.05
-22.52
-17.53
-9.12
1.48
12.15
20.41
24.19
22.36
15.06
3.53
-10.21
-23.89
-35.62
-44.25
-49.64
-52.56
-54.29
-56.18
-59.15
-63.51
-69.06
-75.30
-81.77
-88.22
-94.70
-101.52
-109.06
-117.57
-126.93
-136.46
-145.00
-151.18
-153.89
-152.68
-147.78
-139.83
-129.32
-116.23
-100.04
-80.27
-57.10
-31.67
-5.77
18.84
41.16
61.36
80.44
99.60
119.41
139.17
156.95
170.06
175.89
172.80
160.59
140.51
114.93
86.58
57.87
30.43
4.95
-18.47
-39.83
-58.68
-73.93
-84.08
-87.93
-85.31
-77.57
-67.44
-58.21
-52.57
-51.69
-54.96
-60.51
-66.09
-69.89
-70.97
-69.18
-64.79
-58.20
-49.74
-39.70
-28.36
-16.19
-3.92
7.45
16.74
22.89
25.38
24.50
21.40
17.75
15.18
14.74
16.52
19.84
23.56
26.69
28.66
29.41
29.15
28.10
26.21
23.24
18.93
13.31
6.83
0.26
-5.66
-10.55
-14.62
-18.64
-23.51
-29.85
-37.62
-46.12
-54.23
-60.78
-64.89
-66.11
-64.41
-60.00
-53.24
-44.61
-34.68
-24.09
-13.49
-3.44
5.64
13.38
19.53
23.89
26.35
26.98
26.08
24.09
21.53
18.81
16.25
14.07
12.51
11.83
12.24
13.70
15.83
17.81
18.72
17.76
14.60
9.54
3.51
-2.28
-6.73
-9.23
-9.90
-9.57
-9.50
-10.95
-14.82
-21.38
-30.08
-39.75
-48.76
-55.37
-58.20
-56.55
-50.55
-41.12
-29.57
-17.19
-4.98
6.48
16.83
25.71
32.67
37.25
39.23
38.85
36.89
34.39
32.41
31.61
32.13
33.65
35.59
37.42
38.88
39.93
40.59
40.74
40.02
37.92
34.06
28.45
21.63
14.50
8.10
3.17
0.01
-1.68
-2.62
-3.68
-5.64
-8.94
-13.53
-18.92
-24.33
-28.88
-31.77
-32.52
-30.88
-26.95
-21.05
-13.75
-5.73
2.17
9.14
14.50
17.88
19.27
19.09
17.99
16.69
15.79
15.51
15.74
16.14
16.31
16.07
15.47
14.84
14.52
14.72
15.32
15.93
15.97
14.93
12.55
8.90
4.42
-0.28
-4.53
-7.83
-10.00
-11.17
-11.82
-12.59
-14.12
-16.92
-21.12
-26.47
-32.32
-37.60
-41.10
-41.77
-39.02
-33.03
-24.68
-15.35
-6.38
1.33
7.52
12.39
16.24
19.12
20.73
20.64
18.72
15.39
11.58
8.44
6.78
6.79
7.97
9.47
10.45
10.50
9.69
8.50
7.52
7.14
7.46
8.31
9.34
10.25
10.83
10.95
10.52
9.35
7.23
4.00
-0.35
-5.57
-11.20
-16.63
-21.26
-24.53
-26.03
-25.51
-22.89
-18.30
-12.10
-4.85
2.77
10.05
16.37
21.29
24.51
25.92
25.48
23.31
19.67
15.07
10.24
6.05
3.30
2.51
3.75
6.60
10.28
13.87
16.62
18.01
17.89
16.31
13.48
9.67
5.18
0.38
-4.31
-8.42
-11.54
-13.45
-14.21
-14.17
-13.97
-14.38
-16.04
-19.28
-23.81
-28.77
-32.89
-34.84
-33.76
-29.54
-22.87
-14.91
-6.82
0.65
7.25
13.02
17.94
21.71
23.82
23.88
21.94
18.67
15.13
12.25
10.54
9.85
9.64
9.38
8.94
8.63
8.85
9.75
10.99
11.82
11.51
9.77
6.95
3.84
1.31
-0.19
-0.78
-0.99
-1.34
-2.02
-2.79
-3.21
-3.07
-2.70
-2.86
-4.31
-7.36
-11.46
-15.47
-18.09
-18.46
-16.54
-13.05
-9.08
-5.55
-2.89
-1.09
0.21
1.31
2.24
2.81
2.72
1.74
-0.11
-2.47
-4.77
-6.44
-7.12
-6.86
-5.99
-4.99
-4.22
-3.76
-3.47
-3.16
-2.81
-2.65
-3.04
-4.29
-6.41
-9.11
-11.91
-14.41
-16.49
-18.42
-20.69
-23.80
-27.96
-32.81
-37.47
-40.70
-41.34
-38.74
-33.10
-25.41
-17.08
-9.34
-2.78
2.78
7.95
13.24
18.53
23.06
25.73
25.77
23.25
19.16
15.03
12.30
11.71
13.05
15.31
17.29
18.12
17.57
16.05
14.17
12.39
10.70
8.69
5.90
2.12
-2.42
-7.21
-11.68
-15.65
-19.32
-23.16
-27.57
-32.57
-37.63
-41.84
-44.14
-43.74
-40.35
-34.28
-26.33
-17.59
-9.12
-1.74
4.10
8.30
10.99
12.43
12.99
13.08
13.15
13.53
14.41
15.68
16.95
17.73
17.60
16.43
14.46
12.20
10.23
8.97
8.50
8.54
8.54
7.89
6.20
3.42
-0.10
-3.81
-7.15
-9.88
-12.24
-14.85
-18.46
-23.53
-29.97
-37.04
-43.64
-48.65
-51.30
-51.27
-48.52
-43.18
-35.36
-25.32
-13.76
-1.82
8.97
17.35
22.73
25.51
26.77
27.66
28.76
29.87
30.23
29.14
26.49
22.93
19.58
17.48
17.03
17.88
19.10
19.72
19.14
17.36
14.75
11.84
8.90
5.81
2.23
-2.19
-7.47
-13.13
-18.35
-22.29
-24.55
-25.41
-25.92
-27.37
-30.76
-36.18
-42.49
-47.63
-49.34
-46.06
-37.62
-25.38
-11.65
1.14
11.37
18.59
23.36
26.68
29.36
31.70
33.54
34.65
35.04
35.00
34.98
35.16
35.37
35.11
34.00
32.05
29.76
27.99
27.42
28.14
29.52
30.38
29.53
26.25
20.63
13.43
5.77
-1.38
-7.45
-12.25
-15.77
-17.93
-18.55
-17.61
-15.46
-12.95
-11.18
-10.91
-12.19
-14.11
-15.30
-14.61
-11.76
-7.39
-2.58
1.90
6.13
10.93
17.12
24.80
32.90
39.43
42.36
40.64
34.72
26.42
18.24
12.34
9.83
10.44
12.87
15.32
16.31
15.13
11.99
7.86
3.91
1.07
-0.46
-1.05
-1.50
-2.50
-4.23
-6.35
-8.24
-9.40
-9.86
-10.19
-11.31
-13.98
-18.42
-24.18
-30.25
-35.44
-38.67
-39.27
-37.08
-32.40
-25.91
-18.41
-10.67
-3.23
3.70
10.05
15.77
20.66
24.30
26.27
26.27
24.44
21.32
17.69
14.30
11.62
9.77
8.68
8.22
8.32
8.95
10.00
11.24
12.35
13.00
13.05
12.47
11.38
9.81
7.74
5.09
2.02
-1.04
-3.44
-4.58
-4.39
-3.44
-2.96
-4.26
-8.11
-14.26
-21.31
-27.19
-29.89
-28.33
-22.68
-14.32
-5.13
3.31
10.28
16.01
21.22
26.40
31.27
34.84
35.94
34.02
29.66
24.49
20.46
18.87
19.80
22.05
23.94
24.11
22.24
19.07
15.82
13.47
12.21
11.42
10.16
7.81
4.43
0.79
-2.12
-3.69
-4.04
-3.98
-4.66
-6.94
-11.06
-16.53
-22.45
-27.84
-32.05
-34.76
-35.92
-35.51
-33.43
-29.59
-24.07
-17.35
-10.21
-3.60
1.62
5.03
6.62
6.77
5.94
4.52
2.73
0.66
-1.50
-3.39
-4.44
-4.10
-2.05
1.50
5.84
9.96
12.87
14.01
13.44
11.73
9.63
7.72
6.12
4.56
2.57
-0.16
-3.55
-7.09
-10.16
-12.32
-13.64
-14.70
-16.38
-19.41
-23.88
-29.02
-33.48
-35.67
-34.56
-30.00
-22.84
-14.51
-6.39
0.71
6.75
12.11
17.17
21.81
25.37
27.05
26.42
23.79
20.22
16.97
14.91
14.20
14.24
14.22
13.57
12.25
10.64
9.18
8.00
6.82
5.10
2.41
-1.25
-5.41
-9.28
-12.17
-13.72
-14.10
-13.94
-14.07
-15.26
-17.94
-22.09
-27.27
-32.71
-37.56
-41.02
-42.47
-41.58
-38.29
-32.77
-25.45
-16.91
-7.86
0.84
8.33
13.91
17.23
18.41
18.04
16.99
16.08
15.85
16.38
17.36
18.33
18.92
19.02
18.79
18.57
18.63
19.02
19.53
19.80
19.57
18.82
17.78
16.78
16.00
15.31
14.25
12.33
9.25
5.08
0.15
-5.10
-10.47
-15.97
-21.70
-27.55
-32.92
-36.68
-37.52
-34.44
-27.29
-16.90
-4.95
6.62
16.30
23.44
28.30
31.77
34.76
37.68
40.42
42.48
43.44
43.34
42.70
42.31
42.77
44.19
46.08
47.59
47.83
46.31
43.02
38.39
33.02
27.43
21.94
16.65
11.62
7.00
3.02
-0.07
-2.15
-3.36
-4.08
-4.88
-6.29
-8.68
-12.14
-16.48
-21.23
-25.71
-29.18
-30.94
-30.52
-27.82
-23.13
-17.07
-10.32
-3.46
3.06
8.94
13.85
17.40
19.17
18.87
16.52
12.65
8.15
4.09
1.37
0.42
1.07
2.70
4.58
6.17
7.40
8.47
9.65
10.91
11.81
11.63
9.73
5.93
0.58
-5.54
-11.54
-16.77
-20.92
-24.03
-26.26
-27.85
-29.00
-29.99
-31.14
-32.79
-35.07
-37.78
-40.25
-41.48
-40.44
-36.42
-29.35
-19.91
-9.35
0.85
9.47
15.81
19.82
21.88
22.55
22.23
21.13
19.30
16.85
14.10
11.61
9.94
9.38
9.81
10.68
11.33
11.27
10.40
9.05
7.71
6.80
6.38
6.14
5.49
3.90
1.13
-2.66
-6.93
-11.05
-14.55
-17.42
-20.10
-23.27
-27.43
-32.53
-37.83
-42.09
-43.98
-42.68
-38.14
-31.11
-22.78
-14.20
-6.00
1.77
9.27
16.51
23.08
28.23
31.30
32.08
31.08
29.28
27.69
26.88
26.72
26.67
26.17
25.02
23.49
22.09
21.16
20.65
20.06
18.70
16.07
12.18
7.57
3.06
-0.58
-3.03
-4.54
-5.78
-7.49
-10.09
-13.53
-17.38
-21.19
-24.81
-28.53
-32.79
-37.74
-42.90
-47.06
-48.70
-46.58
-40.40
-30.91
-19.72
-8.62
1.08
8.90
15.09
20.21
24.62
28.25
30.63
31.28
30.11
27.65
24.86
22.79
22.10
22.79
24.25
25.62
26.29
26.18
25.74
25.67
26.37
27.64
28.65
28.28
25.65
20.66
14.01
6.93
0.60
-4.39
-8.16
-11.45
-15.02
-19.24
-23.94
-28.49
-32.24
-34.82
-36.22
-36.61
-36.04
-34.31
-30.98
-25.75
-18.68
-10.38
-1.86
5.73
11.48
14.90
15.97
15.03
12.63
9.34
5.77
2.47
-0.04
-1.38
-1.30
0.18
2.84
6.24
9.78
12.85
14.93
15.64
14.87
12.68
9.42
5.50
1.41
-2.50
-5.96
-8.92
-11.47
-13.82
-16.23
-18.97
-22.24
-26.10
-30.46
-35.02
-39.31
-42.76
-44.67
-44.42
-41.54
-35.87
-27.69
-17.74
-7.10
3.10
11.87
18.59
23.07
25.37
25.76
24.58
22.33
19.66
17.35
16.14
16.49
18.34
21.06
23.73
25.55
26.20
26.01
25.67
25.85
26.77
28.04
28.90
28.61
26.88
23.94
20.41
16.85
13.53
10.32
6.95
3.24
-0.74
-4.75
-8.70
-12.73
-17.17
-22.19
-27.40
-31.71
-33.61
-31.80
-25.83
-16.42
-5.34
5.27
13.68
19.07
21.65
22.30
21.97
21.30
20.41
19.21
17.58
15.70
13.94
12.73
12.29
12.51
13.05
13.53
13.69
13.51
13.09
12.50
11.58
10.02
7.43
3.60
-1.24
-6.48
-11.25
-14.82
-16.92
-17.88
-18.50
-19.75
-22.34
-26.57
-32.19
-38.55
-44.77
-49.95
-53.27
-54.12
-52.19
-47.52
-40.47
-31.65
-21.91
-12.14
-3.22
4.15
9.49
12.68
13.91
13.55
12.01
9.62
6.61
3.21
-0.25
-3.33
-5.53
-6.50
-6.15
-4.70
-2.65
-0.64
0.62
0.59
-1.13
-4.52
-9.16
-14.26
-18.90
-22.33
-24.23
-24.90
-25.02
-25.46
-26.86
-29.49
-33.26
-37.74
-42.22
-45.82
-47.56
-46.55
-42.32
-35.05
-25.69
-15.65
-6.38
1.14
6.70
10.65
13.60
15.92
17.49
17.84
16.37
12.83
7.46
1.08
-5.17
-10.21
-13.27
-14.15
-13.13
-10.80
-7.83
-4.78
-2.06
0.07
1.39
1.75
1.14
-0.27
-2.15
-4.16
-6.07
-7.97
-10.17
-13.09
-17.02
-22.00
-27.74
-33.67
-39.05
-43.09
-45.03
-44.32
-40.73
-34.52
-26.35
-17.19
-8.01
0.43
7.68
13.58
18.03
20.89
21.99
21.27
18.96
15.61
12.06
9.07
7.18
6.52
6.88
7.90
9.22
10.63
12.00
13.24
14.19
14.64
14.42
13.45
11.83
9.83
7.78
5.90
4.18
2.29
-0.30
-4.11
-9.32
-15.50
-21.51
-25.78
-26.74
-23.45
-15.91
-5.18
7.06
19.00
29.27
37.19
42.74
46.28
48.23
48.89
48.38
46.86
44.60
42.06
39.77
38.15
37.39
37.31
37.50
37.44
36.83
35.61
34.04
32.40
30.82
29.11
26.89
23.77
19.60
14.64
9.42
4.56
0.46
-2.83
-5.57
-8.16
-10.94
-14.02
-17.28
-20.30
-22.51
-23.23
-21.87
-18.06
-11.83
-3.68
5.58
15.02
23.87
31.72
38.43
44.08
48.71
52.28
54.64
55.71
55.55
54.45
52.84
51.19
49.81
48.86
48.33
48.20
48.50
49.27
50.48
51.79
52.56
51.99
49.37
44.51
37.88
30.60
24.11
19.77
18.34
19.71
22.90
26.27
28.00
26.62
21.47
12.92
2.34
-8.37
-17.29
-23.03
-25.09
-23.88
-20.48
-16.25
-12.39
-9.63
-8.18
-7.82
-8.18
-8.95
-10.02
-11.44
-13.26
-15.40
-17.64
-19.70
-21.38
-22.63
-23.51
-24.07
-24.23
-23.75
-22.41
-20.16
-17.28
-14.32
-11.93
-10.59
-10.42
-11.20
-12.51
-13.96
-15.28
-16.44
-17.41
-18.18
-18.68
-18.88
-18.88
-18.95
-19.45
-20.65
-22.59
-24.98
-27.26
-28.70
-28.53
-26.11
-21.07
-13.51
-3.96
6.59
16.95
26.00
32.93
37.36
39.32
39.08
37.12
33.94
30.12
26.24
22.79
20.12
18.34
17.31
16.67
16.06
15.23
14.26
13.50
13.47
14.60
17.01
20.42
24.21
27.67
30.12
31.01
29.90
26.42
20.41
11.95
1.58
-9.81
-21.10
-31.25
-39.47
-45.23
-48.19
-48.13
-44.98
-38.99
-30.88
-21.73
-12.83
-5.21
0.67
5.03
8.59
12.17
16.24
20.76
25.12
28.45
29.96
29.20
26.25
21.66
16.38
11.50
8.10
6.93
8.20
11.38
15.18
17.90
17.94
14.44
7.69
-0.90
-9.34
-15.82
-19.41
-20.50
-20.51
-21.26
-24.15
-29.52
-36.56
-43.62
-48.89
-51.07
-49.81
-45.68
-39.83
-33.54
-27.82
-23.28
-20.15
-18.51
-18.36
-19.72
-22.59
-26.79
-31.90
-37.30
-42.16
-45.69
-47.32
-46.85
-44.52
-40.90
-36.68
-32.44
-28.48
-24.78
-21.13
-17.28
-13.20
-9.11
-5.51
-2.97
-1.96
-2.60
-4.58
-7.26
-9.87
-11.85
-12.99
-13.56
-14.01
-14.77
-15.99
-17.46
-18.76
-19.50
-19.45
-18.54
-16.72
-13.85
-9.60
-3.75
3.62
11.89
20.01
26.76
31.31
33.50
33.90
33.51
33.26
33.64
34.53
35.39
35.56
34.66
32.63
29.68
26.18
22.44
18.76
15.41
12.64
10.57
9.09
7.83
6.20
3.68
0.05
-4.49
-9.47
-14.35
-18.81
-22.81
-26.41
-29.66
-32.36
-34.20
-34.87
-34.27
-32.58
-30.15
-27.35
-24.39
-21.21
-17.55
-13.07
-7.50
-0.73
7.06
15.43
23.62
30.68
35.65
37.79
36.88
33.27
27.89
22.02
16.98
13.81
13.04
14.67
18.25
23.11
28.53
33.81
38.27
41.19
41.85
39.64
34.36
26.39
16.69
6.68
-2.20
-8.87
-12.90
-14.59
-14.82
-14.70
-15.22
-16.88
-19.55
-22.56
-24.98
-25.96
-24.99
-22.04
-17.43
-11.61
-4.96
2.15
9.30
15.81
20.76
23.17
22.37
18.36
11.97
4.75
-1.49
-5.24
-5.79
-3.42
0.78
5.31
8.79
10.31
9.59
6.89
2.75
-2.09
-6.96
-11.32
-14.85
-17.51
-19.45
-20.89
-21.94
-22.53
-22.50
-21.82
-20.75
-19.84
-19.78
-20.99
-23.51
-27.02
-31.07
-35.27
-39.45
-43.45
-46.91
-49.24
-49.70
-47.81
-43.56
-37.56
-30.86
-24.49
-19.23
-15.37
-12.85
-11.43
-10.81
-10.76
-11.05
-11.39
-11.45
-10.92
-9.58
-7.42
-4.72
-1.98
0.15
1.08
0.54
-1.26
-3.63
-5.61
-6.32
-5.35
-2.89
0.28
3.21
4.98
5.06
3.30
-0.07
-4.61
-9.67
-14.46
-18.07
-19.59
-18.32
-14.01
-7.04
1.65
10.72
18.95
25.46
29.98
32.72
34.21
34.91
35.03
34.51
33.14
30.83
27.72
24.24
20.93
18.34
16.71
16.01
15.86
15.65
14.76
12.78
9.66
5.76
1.63
-2.19
-5.41
-8.09
-10.59
-13.25
-16.31
-19.81
-23.61
-27.51
-31.25
-34.48
-36.69
-37.26
-35.63
-31.59
-25.37
-17.70
-9.63
-2.15
4.03
8.66
11.92
14.23
15.99
17.39
18.30
18.42
17.41
15.20
12.00
8.30
4.66
1.47
-1.10
-3.07
-4.46
-5.25
-5.29
-4.54
-3.11
-1.44
-0.08
0.47
-0.07
-1.61
-3.85
-6.39
-9.05
-11.92
-15.22
-19.16
-23.60
-27.95
-31.28
-32.62
-31.36
-27.47
-21.57
-14.63
-7.64
-1.25
4.36
9.33
13.87
17.98
21.29
23.22
23.33
21.52
18.31
14.61
11.47
9.63
9.28
10.04
11.22
12.16
12.57
12.55
12.46
12.59
12.95
13.17
12.62
10.77
7.43
2.97
-1.86
-6.23
-9.59
-11.95
-13.78
-15.79
-18.56
-22.28
-26.72
-31.37
-35.62
-38.87
-40.56
-40.08
-36.97
-31.02
-22.57
-12.62
-2.53
6.30
13.00
17.40
20.04
21.70
22.99
24.06
24.65
24.39
23.13
21.12
18.92
17.14
16.08
15.66
15.49
15.14
14.41
13.39
12.38
11.64
11.15
10.59
9.44
7.26
3.96
-0.13
-4.32
-7.90
-10.43
-11.87
-12.61
-13.21
-14.19
-15.74
-17.75
-19.93
-22.06
-24.14
-26.42
-29.14
-32.22
-35.07
-36.67
-35.95
-32.27
-25.75
-17.27
-8.09
0.59
8.14
14.48
19.97
24.94
29.44
33.12
35.43
36.01
34.93
32.78
30.43
28.72
28.07
28.35
29.05
29.57
29.53
28.87
27.81
26.55
25.15
23.46
21.26
18.43
15.07
11.46
7.90
4.61
1.63
-1.15
-3.87
-6.63
-9.39
-12.00
-14.33
-16.33
-18.14
-20.06
-22.44
-25.48
-29.06
-32.61
-35.26
-36.12
-34.63
-30.76
-25.00
-18.13
-10.88
-3.69
3.24
9.82
15.81
20.82
24.33
26.05
26.05
24.77
22.91
21.16
19.95
19.41
19.40
19.75
20.35
21.28
22.75
24.88
27.53
30.13
31.88
32.04
30.31
27.00
22.94
19.06
15.99
13.86
12.41
11.26
10.22
9.32
8.66
8.23
7.78
6.99
5.58
3.53
1.06
-1.50
-3.76
-5.36
-5.91
-5.08
-2.62
1.39
6.48
11.84
16.60
20.14
22.25
23.15
23.19
22.58
21.24
18.89
15.32
10.66
5.50
0.78
-2.61
-4.23
-4.28
-3.59
-3.29
-4.38
-7.42
-12.41
-18.89
-26.11
-33.25
-39.54
-44.39
-47.44
-48.67
-48.39
-47.15
-45.57
-44.13
-43.07
-42.42
-42.21
-42.60
-43.78
-45.84
-48.43
-50.70
-51.47
-49.64
-44.63
-36.66
-26.69
-15.95
-5.46
4.31
13.48
22.32
30.77
38.16
43.35
45.25
43.52
38.91
33.06
27.94
24.95
24.47
25.81
27.75
29.16
29.53
29.01
28.10
27.22
26.44
25.40
23.61
20.74
16.76
12.02
7.01
2.14
-2.42
-6.85
-11.50
-16.72
-22.57
-28.77
-34.73
-39.71
-43.14
-44.74
-44.61
-42.96
-40.00
-35.79
-30.21
-23.26
-15.15
-6.44
2.09
9.64
15.73
20.20
23.22
24.98
25.55
24.75
22.30
18.22
13.01
7.69
3.56
1.59
2.11
4.56
7.82
10.72
12.46
12.88
12.25
10.96
9.25
7.15
4.62
1.82
-0.90
-3.08
-4.43
-5.12
-5.71
-7.03
-9.78
-14.21
-19.98
-26.15
-31.46
-34.70
-35.05
-32.22
-26.54
-18.74
-9.76
-0.53
8.21
15.88
22.04
26.38
28.68
28.89
27.23
24.19
20.47
16.81
13.78
11.68
10.50
10.03
10.01
10.27
10.70
11.23
11.72
11.94
11.60
10.43
8.26
5.13
1.25
-3.01
-7.23
-11.10
-14.39
-17.10
-19.40
-21.62
-24.17
-27.42
-31.56
-36.41
-41.41
-45.58
-47.80
-47.15
-43.33
-36.82
-28.73
-20.47
-13.20
-7.52
-3.44
-0.66
1.04
1.59
0.69
-1.83
-5.73
-10.18
-14.05
-16.37
-16.69
-15.37
-13.26
-11.34
-10.28
-10.22
-10.80
-11.50
-11.87
-11.76
-11.33
-10.91
-10.89
-11.58
-13.14
-15.58
-18.74
-22.37
-26.13
-29.72
-32.98
-35.89
-38.58
-41.11
-43.29
-44.56
-44.09
-41.00
-34.81
-25.69
-14.53
-2.62
8.75
18.76
27.15
34.06
39.74
44.16
46.92
47.53
45.77
42.04
37.47
33.57
31.72
32.62
35.98
40.66
45.11
48.03
48.83
47.73
45.46
42.76
39.99
36.90
32.98
27.78
21.46
14.81
9.01
5.11
3.47
3.54
4.06
3.63
1.30
-3.05
-8.81
-15.07
-21.08
-26.40
-30.83
-33.98
-35.10
-33.23
-27.80
-19.10
-8.38
2.49
11.83
18.81
23.60
26.91
29.34
30.94
31.25
29.80
26.60
22.45
18.61
16.25
15.85
17.04
18.78
19.94
19.84
18.51
16.60
14.91
13.95
13.66
13.44
12.58
10.62
7.64
4.17
0.93
-1.65
-3.60
-5.38
-7.58
-10.60
-14.49
-19.00
-23.78
-28.57
-33.18
-37.31
-40.42
-41.68
-40.19
-35.35
-27.25
-16.80
-5.54
4.90
13.32
19.28
23.08
25.28
26.37
26.45
25.34
22.84
19.14
14.91
11.21
9.00
8.89
10.76
13.91
17.30
19.89
21.05
20.67
19.19
17.35
15.87
15.09
14.81
14.45
13.34
11.14
8.04
4.67
1.66
-0.71
-2.72
-5.04
-8.29
-12.68
-17.85
-23.12
-27.96
-32.25
-36.37
-40.71
-45.18
-48.95
-50.58
-48.69
-42.63
-32.91
-21.11
-9.33
0.69
8.06
12.89
15.99
18.24
20.13
21.58
22.18
21.53
19.66
17.11
14.77
13.45
13.52
14.82
16.78
18.80
20.52
21.92
23.15
24.26
25.07
25.14
24.08
21.70
18.18
13.96
9.54
5.34
1.52
-1.93
-5.13
-8.21
-11.24
-14.23
-17.08
-19.67
-21.96
-24.10
-26.43
-29.29
-32.86
-36.75
-40.02
-41.34
-39.59
-34.33
-26.14
-16.37
-6.59
2.10
9.39
15.64
21.34
26.53
30.66
32.82
32.36
29.46
25.16
20.98
18.25
17.49
18.26
19.56
20.38
20.30
19.59
18.92
18.88
19.52
20.31
20.36
18.93
15.75
11.22
6.19
1.61
-1.81
-3.88
-4.85
-5.29
-5.76
-6.72
-8.34
-10.74
-13.95
-18.02
-22.88
-28.09
-32.75
-35.64
-35.64
-32.23
-25.73
-17.34
-8.50
-0.40
6.48
12.40
17.85
23.09
27.78
31.09
32.19
30.74
27.23
22.82
18.88
16.40
15.66
16.24
17.39
18.45
19.16
19.57
19.79
19.74
19.05
17.28
14.19
10.02
5.39
1.07
-2.44
-5.10
-7.26
-9.38
-11.72
-14.19
-16.51
-18.47
-20.11
-21.78
-23.95
-26.92
-30.71
-34.93
-38.87
-41.70
-42.59
-40.94
-36.60
-29.97
-22.00
-13.87
-6.62
-0.86
3.40
6.56
9.07
11.09
12.42
12.72
11.89
10.25
8.48
7.37
7.36
8.35
9.83
11.14
11.94
12.30
12.61
13.23
14.21
15.14
15.35
14.26
11.68
7.97
3.83
-0.02
-3.16
-5.63
-7.82
-10.27
-13.26
-16.71
-20.23
-23.38
-25.98
-28.28
-30.82
-34.10
-38.09
-42.13
-44.97
-45.34
-42.45
-36.43
-28.30
-19.50
-11.33
-4.48
1.12
5.98
10.61
15.00
18.65
20.73
20.67
18.53
15.09
11.55
8.96
7.86
8.08
8.96
9.73
9.88
9.28
8.17
6.92
5.83
5.02
4.41
3.73
2.75
1.35
-0.38
-2.16
-3.73
-5.00
-6.08
-7.22
-8.51
-9.79
-10.67
-10.79
-10.13
-9.12
-8.57
-9.28
-11.63
-15.35
-19.53
-22.98
-24.59
-23.73
-20.33
-14.87
-8.12
-0.95
5.89
11.85
16.60
19.97
21.87
22.41
21.84
20.55
19.03
17.71
16.90
16.70
16.99
17.52
18.04
18.43
18.71
19.00
19.44
19.99
20.42
20.33
19.37
17.38
14.52
11.24
8.09
5.50
3.64
2.31
1.08
-0.47
-2.56
-5.07
-7.58
-9.57
-10.68
-10.92
-10.67
-10.56
-11.13
-12.65
-15.03
-17.85
-20.53
-22.50
-23.30
-22.52
-19.93
-15.45
-9.29
-2.02
5.53
12.46
18.03
21.92
24.15
25.01
24.77
23.56
21.43
18.52
15.22
12.16
10.03
9.23
9.74
11.11
12.69
13.91
14.47
14.35
13.68
12.57
11.05
9.10
6.70
3.91
0.86
-2.33
-5.53
-8.69
-11.75
-14.68
-17.42
-19.93
-22.21
-24.34
-26.46
-28.76
-31.33
-34.16
-36.99
-39.35
-40.60
-40.09
-37.33
-32.19
-24.97
-16.39
-7.43
0.84
7.60
12.40
15.24
16.45
16.48
15.69
14.22
12.07
9.29
6.13
3.19
1.27
0.99
2.57
5.62
9.30
12.63
14.88
15.84
15.72
14.95
13.81
12.33
10.28
7.46
3.88
-0.08
-3.83
-6.80
-8.74
-9.83
-10.61
-11.73
-13.66
-16.46
-19.86
-23.37
-26.51
-28.94
-30.39
-30.58
-29.13
-25.67
-20.03
-12.52
-3.93
4.61
11.98
17.36
20.47
21.46
20.82
19.13
16.93
14.61
12.45
10.68
9.52
9.16
9.74
11.19
13.20
15.13
16.27
16.06
14.39
11.68
8.69
6.21
4.71
4.15
4.10
3.97
3.32
1.98
0.08
-2.18
-4.67
-7.44
-10.68
-14.56
-19.06
-23.91
-28.54
-32.28
-34.48
-34.72
-32.88
-29.12
-23.79
-17.29
-10.04
-2.45
5.05
11.86
17.32
20.80
21.97
20.92
18.27
14.97
12.01
10.08
9.38
9.71
10.68
11.92
13.24
14.50
15.54
16.06
15.73
14.38
12.06
9.22
6.36
3.92
2.03
0.48
-1.00
-2.59
-4.21
-5.61
-6.64
-7.44
-8.49
-10.43
-13.65
-17.93
-22.33
-25.44
-25.91
-23.06
-17.16
-9.35
-1.13
6.21
12.03
16.35
19.52
21.83
23.14
23.04
21.19
17.72
13.43
9.53
7.15
6.83
8.28
10.64
12.95
14.62
15.62
16.24
16.74
17.02
16.59
14.93
11.85
7.77
3.51
-0.07
-2.55
-4.19
-5.70
-7.87
-11.10
-15.27
-19.86
-24.32
-28.26
-31.42
-33.52
-34.04
-32.32
-27.87
-20.78
-11.87
-2.49
5.98
12.61
17.10
19.77
21.06
21.32
20.60
18.82
16.05
12.66
9.33
6.80
5.57
5.67
6.63
7.75
8.42
8.39
7.87
7.26
6.81
6.37
5.41
3.36
0.04
-4.18
-8.39
-11.65
-13.39
-13.81
-13.76
-14.37
-16.57
-20.62
-26.08
-31.93
-36.99
-40.28
-41.27
-39.86
-36.25
-30.76
-23.74
-15.59
-6.88
1.63
9.07
14.75
18.32
19.86
19.80
18.68
16.94
14.86
12.70
10.74
9.34
8.82
9.26
10.44
11.93
13.26
14.15
14.53
14.41
13.74
12.30
9.85
6.29
1.90
-2.74
-6.91
-10.04
-12.02
-13.22
-14.29
-15.96
-18.71
-22.72
-27.78
-33.38
-38.73
-42.94
-45.11
-44.52
-40.86
-34.33
-25.64
-15.92
-6.33
2.17
9.05
14.25
17.93
20.26
21.24
20.75
18.78
15.65
12.15
9.34
8.18
9.18
12.11
16.21
20.47
24.00
26.35
27.42
27.40
26.46
24.71
22.20
19.03
15.48
11.93
8.75
6.07
3.76
1.42
-1.34
-4.76
-8.69
-12.73
-16.38
-19.39
-21.91
-24.45
-27.66
-31.87
-36.84
-41.63
-44.87
-45.25
-41.98
-35.17
-25.73
-15.11
-4.71
4.41
11.81
17.43
21.43
23.97
25.10
24.95
23.81
22.17
20.61
19.65
19.54
20.22
21.43
22.83
24.24
25.59
26.92
28.14
29.06
29.40
28.89
27.39
24.96
21.78
18.14
14.26
10.27
6.23
2.18
-1.82
-5.69
-9.34
-12.75
-16.01
-19.27
-22.71
-26.44
-30.52
-34.84
-39.17
-43.11
-46.06
-47.27
-45.98
-41.69
-34.40
-24.71
-13.74
-2.78
7.04
14.99
20.78
24.53
26.54
27.21
26.93
26.05
24.89
23.71
22.67
21.94
21.64
21.84
22.54
23.62
24.82
25.82
26.33
26.18
25.34
23.88
21.87
19.38
16.48
13.36
10.26
7.49
5.17
3.19
1.17
-1.33
-4.57
-8.45
-12.50
-16.13
-18.94
-21.03
-22.93
-25.39
-29.04
-34.12
-40.31
-46.84
-52.66
-56.62
-57.79
-55.60
-50.04
-41.66
-31.45
-20.57
-10.02
-0.45
7.81
14.61
19.79
23.10
24.30
23.47
21.13
18.20
15.72
14.46
14.58
15.63
16.86
17.56
17.51
16.98
16.51
16.56
17.17
17.94
18.30
17.82
16.49
14.73
13.10
11.98
11.31
10.69
9.64
7.86
5.43
2.65
-0.18
-3.04
-6.22
-10.10
-14.87
-20.32
-25.83
-30.47
-33.35
-33.72
-31.22
-25.90
-18.21
-8.97
0.76
9.89
17.57
23.37
27.33
29.80
31.22
31.87
31.85
31.08
29.51
27.32
24.89
22.79
21.59
21.66
23.01
25.29
27.82
29.81
30.53
29.57
26.91
22.99
18.48
14.03
10.06
6.62
3.44
0.20
-3.35
-7.23
-11.27
-15.27
-19.07
-22.58
-25.72
-28.32
-30.21
-31.34
-31.96
-32.72
-34.45
-37.88
-43.17
-49.66
-55.97
-60.35
-61.31
-58.18
-51.32
-41.98
-31.76
-21.97
-13.19
-5.21
2.55
10.48
18.38
25.37
30.31
32.44
31.80
29.28
26.22
23.86
22.82
23.02
23.97
25.12
26.26
27.45
28.80
30.17
31.08
30.83
28.93
25.40
20.78
15.95
11.71
8.38
5.74
3.16
0.06
-3.82
-8.27
-12.70
-16.52
-19.39
-21.47
-23.36
-25.80
-29.38
-34.13
-39.47
-44.28
-47.27
-47.44
-44.39
-38.44
-30.40
-21.26
-11.87
-2.79
5.66
13.23
19.64
24.56
27.77
29.28
29.39
28.61
27.50
26.42
25.51
24.72
23.99
23.41
23.24
23.81
25.29
27.48
29.78
31.35
31.50
29.96
26.96
23.06
18.86
14.68
10.57
6.38
2.07
-2.15
-5.88
-8.82
-10.94
-12.69
-14.78
-17.94
-22.54
-28.45
-34.95
-40.97
-45.33
-46.99
-45.34
-40.32
-32.48
-22.83
-12.54
-2.65
6.15
13.58
19.61
24.26
27.44
29.01
28.88
27.25
24.66
21.86
19.63
18.56
18.86
20.35
22.53
24.75
26.36
26.85
26.03
24.03
21.30
18.46
16.05
14.36
13.30
12.48
11.29
9.22
5.99
1.66
-3.46
-8.99
-14.67
-20.48
-26.60
-33.24
-40.46
-47.89
-54.76
-59.98
-62.42
-61.36
-56.67
-48.95
-39.36
-29.20
-19.55
-11.02
-3.67
2.67
8.14
12.67
15.92
17.59
17.58
16.28
14.42
12.85
12.22
12.69
14.01
15.63
17.03
17.95
18.38
18.48
18.41
18.14
17.51
16.31
14.37
11.65
8.22
4.22
-0.14
-4.58
-8.74
-12.30
-15.12
-17.39
-19.61
-22.47
-26.58
-32.13
-38.68
-45.10
-49.88
-51.56
-49.24
-42.87
-33.27
-21.85
-10.07
0.93
10.57
18.67
25.22
30.15
33.23
34.32
33.47
31.12
28.02
25.00
22.74
21.58
21.38
21.76
22.26
22.56
22.62
22.61
22.75
23.05
23.25
22.86
21.43
18.74
14.95
10.51
5.93
1.62
-2.28
-5.77
-8.96
-11.97
-14.93
-18.07
-21.68
-26.08
-31.32
-37.01
-42.25
-45.76
-46.30
-43.09
-36.19
-26.45
-15.28
-4.18
5.77
14.05
20.61
25.54
28.84
30.27
29.65
27.07
23.14
18.88
15.35
13.27
12.75
13.26
14.00
14.30
13.86
12.84
11.65
10.57
9.60
8.35
6.31
3.14
-1.10
-5.83
-10.32
-13.96
-16.64
-18.77
-21.05
-24.13
-28.19
-32.95
-37.82
-42.22
-45.77
-48.24
-49.40
-48.81
-45.86
-40.07
-31.38
-20.40
-8.30
3.43
13.47
21.00
25.78
28.03
28.22
26.78
24.09
20.52
16.61
13.14
10.97
10.82
12.93
16.89
21.69
26.08
29.05
30.12
29.45
27.57
24.98
21.94
18.30
13.83
8.47
2.57
-3.14
-7.85
-11.11
-13.05
-14.44
-16.43
-20.09
-26.01
-34.01
-43.13
-51.80
-58.20
-60.66
-58.14
-50.44
-38.33
-23.37
-7.48
7.44
19.99
29.39
35.48
38.57
39.18
37.95
35.57
32.78
30.28
28.66
28.21
28.86
30.16
31.47
32.22
32.11
31.14
29.60
27.82
26.05
24.30
22.38
19.95
16.67
12.34
7.03
1.06
-5.03
-10.70
-15.57
-19.60
-23.06
-26.49
-30.50
-35.56
-41.84
-49.01
-56.15
-61.86
-64.54
-62.92
-56.49
-45.87
-32.60
-18.67
-5.77
5.15
13.95
21.02
26.72
31.14
34.07
35.28
34.89
33.44
31.72
30.46
30.01
30.27
30.91
31.54
32.02
32.34
32.59
32.71
32.44
31.42
29.35
26.06
21.68
16.50
10.94
5.44
0.39
-3.94
-7.44
-10.27
-12.79
-15.60
-19.28
-24.29
-30.74
-38.27
-45.94
-52.39
-56.07
-55.69
-50.69
-41.44
-29.25
-15.87
-2.95
8.42
17.83
25.39
31.26
35.47
37.82
38.09
36.37
33.19
29.44
26.07
23.75
22.65
22.53
22.88
23.22
23.27
22.92
22.14
20.90
19.08
16.59
13.41
9.63
5.42
0.95
-3.63
-8.18
-12.56
-16.61
-20.23
-23.49
-26.70
-30.34
-34.80
-40.07
-45.49
-49.74
-51.26
-48.77
-41.83
-31.09
-18.07
-4.64
7.65
17.94
26.09
32.32
36.81
39.47
40.04
38.41
34.90
30.34
25.84
22.48
20.85
20.89
21.97
23.22
23.90
23.70
22.80
21.65
20.65
19.83
18.80
16.93
13.73
9.17
3.75
-1.68
-6.33
-9.86
-12.53
-15.11
-18.46
-23.27
-29.73
-37.59
-46.18
-54.54
-61.53
-65.97
-66.80
-63.35
-55.55
-44.10
-30.33
-15.84
-2.16
9.69
19.32
26.81
32.52
36.72
39.52
40.86
40.77
39.50
37.59
35.73
34.50
34.10
34.24
34.31
33.66
31.94
29.22
25.88
22.32
18.73
15.04
11.02
6.56
1.85
-2.69
-6.61
-9.71
-12.22
-14.77
-18.16
-23.02
-29.57
-37.37
-45.46
-52.39
-56.62
-56.86
-52.49
-43.82
-31.99
-18.73
-5.79
5.56
14.75
21.89
27.41
31.71
34.80
36.44
36.31
34.32
30.78
26.37
21.94
18.26
15.74
14.40
13.90
13.67
13.12
11.72
9.17
5.37
0.53
-4.93
-10.43
-15.34
-19.21
-21.83
-23.35
-24.23
-25.16
-26.86
-29.89
-34.42
-40.00
-45.61
-49.74
-50.85
-47.80
-40.40
-29.48
-16.70
-3.96
7.19
15.97
22.40
26.95
30.09
31.97
32.42
31.24
28.46
24.58
20.48
17.10
15.11
14.70
15.53
16.97
18.35
19.21
19.35
18.79
17.67
16.08
14.07
11.65
8.84
5.64
2.13
-1.58
-5.34
-8.94
-12.10
-14.64
-16.53
-18.03
-19.65
-22.03
-25.66
-30.72
-36.84
-43.15
-48.42
-51.34
-50.86
-46.51
-38.56
-27.93
-16.02
-4.27
6.10
14.40
20.41
24.28
26.33
26.82
25.97
23.95
21.06
17.76
14.64
12.31
11.20
11.43
12.74
14.66
16.67
18.32
19.36
19.60
18.86
16.96
13.74
9.23
3.75
-2.07
-7.44
-11.65
-14.40
-15.89
-16.84
-18.21
-20.93
-25.45
-31.56
-38.34
-44.36
-48.07
-48.25
-44.45
-36.99
-26.97
-15.74
-4.65
5.36
13.69
19.99
24.04
25.64
24.73
21.57
16.78
11.32
6.23
2.30
-0.11
-1.04
-0.84
0.12
1.53
3.22
4.98
6.49
7.29
6.93
5.20
2.27
-1.35
-4.98
-8.12
-10.63
-12.78
-15.07
-17.96
-21.71
-26.23
-31.16
-35.89
-39.71
-41.77
-41.30
-37.72
-30.86
-21.13
-9.51
2.67
14.02
23.43
30.22
34.21
35.52
34.52
31.68
27.59
22.99
18.66
15.30
13.35
12.81
13.23
13.94
14.34
14.18
13.60
13.04
12.81
12.83
12.60
11.30
8.28
3.35
-2.98
-9.71
-15.70
-20.20
-23.18
-25.27
-27.50
-30.85
-35.78
-42.02
-48.64
-54.28
-57.57
-57.49
-53.66
-46.37
-36.46
-25.06
-13.31
-2.08
8.03
16.72
23.81
29.15
32.53
33.88
33.30
31.23
28.33
25.32
22.73
20.77
19.39
18.37
17.62
17.13
16.96
17.08
17.23
16.98
15.85
13.53
10.01
5.59
0.69
-4.27
-9.00
-13.32
-17.13
-20.35
-23.01
-25.30
-27.66
-30.75
-35.17
-41.16
-48.27
-55.22
-60.18
-61.29
-57.41
-48.52
-35.87
-21.49
-7.54
4.41
13.73
20.63
25.71
29.52
32.26
33.79
33.97
32.90
31.09
29.25
27.97
27.46
27.44
27.41
26.98
26.09
25.02
24.18
23.74
23.46
22.72
20.77
17.18
12.05
6.00
-0.04
-5.22
-9.13
-11.85
-13.89
-15.82
-17.99
-20.42
-22.83
-25.02
-26.96
-29.03
-31.74
-35.57
-40.53
-46.05
-51.04
-54.13
-54.16
-50.51
-43.30
-33.33
-21.83
-10.03
1.17
11.31
20.26
28.00
34.32
38.81
41.01
40.73
38.31
34.57
30.63
27.47
25.61
25.05
25.40
26.13
26.89
27.47
27.80
27.80
27.33
26.20
24.34
21.79
18.76
15.46
12.01
8.44
4.70
0.84
-2.99
-6.58
-9.81
-12.76
-15.82
-19.51
-24.22
-29.96
-36.16
-41.80
-45.64
-46.63
-44.18
-38.30
-29.60
-19.04
-7.71
3.34
13.28
21.50
27.59
31.35
32.77
32.13
29.95
26.89
23.69
20.91
18.80
17.35
16.36
15.58
14.95
14.52
14.38
14.55
14.83
14.86
14.26
12.80
10.49
7.58
4.45
1.38
-1.46
-4.05
-6.43
-8.66
-10.76
-12.81
-15.02
-17.76
-21.49
-26.58
-33.06
-40.45
-47.66
-53.19
-55.54
-53.72
-47.61
-38.06
-26.59
-14.82
-3.93
5.67
14.10
21.68
28.37
33.63
36.63
36.80
34.27
30.07
25.78
22.91
22.31
23.87
26.67
29.55
31.63
32.66
32.90
32.77
32.44
31.62
29.78
26.38
21.34
15.09
8.48
2.35
-2.70
-6.61
-9.75
-12.72
-16.07
-20.16
-25.11
-30.84
-37.13
-43.65
-49.90
-55.13
-58.39
-58.58
-54.81
-46.68
-34.63
-19.99
-4.67
9.34
20.60
28.61
33.78
37.04
39.23
40.67
41.17
40.34
38.10
35.00
32.05
30.22
29.89
30.59
31.27
30.88
28.99
26.01
22.98
20.93
20.34
20.86
21.50
21.18
19.21
15.60
10.88
5.83
0.99
-3.49
-7.85
-12.42
-17.44
-22.86
-28.42
-33.85
-39.08
-44.16
-49.12
-53.66
-56.97
-57.86
-55.26
-48.76
-38.93
-27.28
-15.71
-5.83
1.60
6.76
10.47
13.49
16.15
18.18
19.02
18.35
16.40
13.98
12.09
11.46
12.23
13.86
15.46
16.28
16.05
15.04
13.81
12.81
12.07
11.12
9.23
5.79
0.74
-5.33
-11.40
-16.37
-19.64
-21.34
-22.28
-23.53
-25.96
-29.83
-34.73
-39.85
-44.34
-47.54
-49.04
-48.52
-45.64
-40.05
-31.69
-21.00
-9.03
2.79
13.11
21.03
26.36
29.44
30.84
31.01
30.17
28.34
25.61
22.31
19.07
16.63
15.55
15.98
17.52
19.34
20.50
20.28
18.46
15.36
11.69
8.25
5.55
3.57
1.86
-0.24
-3.22
-7.06
-11.31
-15.27
-18.44
-20.88
-23.21
-26.34
-30.97
-37.24
-44.63
-52.18
-58.84
-63.69
-66.15
-65.84
-62.55
-56.20
-46.86
-34.94
-21.24
-6.97
6.48
17.74
25.84
30.39
31.69
30.52
27.79
24.30
20.52
16.78
13.55
11.62
12.02
15.60
22.52
31.90
41.93
50.37
55.37
56.02
52.67
46.61
39.45
32.52
26.54
21.65
17.71
14.72
12.81
12.11
12.36
12.72
11.89
8.50
1.66
-8.63
-21.37
-34.83
-46.93
-55.65
-59.44
-57.43
-49.58
-36.72
-20.44
-2.83
13.99
28.22
38.73
45.10
47.43
46.14
41.72
34.74
25.96
16.40
7.36
0.19
-4.01
-4.72
-2.16
2.80
8.93
14.94
19.78
22.77
23.57
22.08
18.45
12.99
6.23
-1.06
-7.99
-13.66
-17.43
-19.06
-18.87
-17.61
-16.30
-15.94
-17.33
-20.89
-26.60
-34.03
-42.34
-50.30
-56.47
-59.40
-57.99
-51.82
-41.28
-27.53
-12.17
3.11
16.86
28.04
36.02
40.52
41.55
39.39
34.70
28.47
22.05
16.84
14.04
14.25
17.28
22.23
27.71
32.39
35.38
36.41
35.66
33.45
29.96
25.17
19.17
12.36
5.56
-0.25
-4.30
-6.57
-7.74
-9.05
-11.70
-16.39
-23.02
-30.79
-38.45
-44.61
-48.10
-48.09
-44.22
-36.81
-26.80
-15.66
-5.02
3.70
9.76
13.13
14.41
14.49
14.19
14.05
14.21
14.60
14.92
14.88
14.24
12.96
11.22
9.41
8.00
7.34
7.56
8.53
9.93
11.44
12.73
13.51
13.50
12.44
10.17
6.71
2.28
-2.74
-8.06
-13.50
-18.90
-23.98
-28.07
-30.24
-29.55
-25.48
-18.35
-9.26
0.22
8.65
15.23
19.90
23.06
25.15
26.32
26.39
25.08
22.42
18.90
15.37
12.73
11.49
11.64
12.66
13.86
14.68
14.85
14.45
13.66
12.62
11.28
9.44
6.93
3.69
-0.10
-4.14
-8.17
-12.12
-16.14
-20.45
-25.06
-29.55
-32.95
-34.04
-31.82
-25.93
-16.99
-6.37
4.23
13.37
20.25
24.72
27.06
27.62
26.59
24.04
20.12
15.19
9.94
5.13
1.46
-0.70
-1.35
-0.82
0.35
1.61
2.53
2.87
2.53
1.63
0.32
-1.33
-3.29
-5.65
-8.54
-12.01
-16.14
-20.88
-26.09
-31.44
-36.36
-39.97
-41.22
-39.18
-33.36
-24.03
-12.19
0.59
12.67
22.75
30.13
34.75
36.95
37.18
35.88
33.38
30.03
26.21
22.40
19.10
16.65
15.22
14.70
14.77
15.00
15.02
14.58
13.66
12.38
10.85
9.08
6.96
4.33
1.12
-2.58
-6.49
-10.31
-13.91
-17.43
-21.27
-25.94
-31.78
-38.76
-46.32
-53.41
-58.66
-60.67
-58.49
-51.89
-41.55
-28.91
-15.75
-3.70
6.20
13.58
18.61
21.64
22.92
22.49
20.33
16.65
12.07
7.56
4.21
2.73
3.23
5.16
7.65
9.86
11.44
12.51
13.46
14.57
15.71
16.32
15.76
13.63
10.11
5.88
1.82
-1.43
-3.80
-5.85
-8.46
-12.44
-18.07
-24.93
-31.89
-37.52
-40.41
-39.66
-35.11
-27.26
-17.24
-6.38
3.99
12.85
19.57
23.94
26.11
26.44
25.33
23.08
19.87
15.90
11.52
7.34
4.18
2.77
3.45
5.91
9.32
12.48
14.36
14.38
12.56
9.42
5.67
1.87
-1.71
-5.07
-8.30
-11.47
-14.46
-17.12
-19.42
-21.64
-24.31
-27.87
-32.31
-36.90
-40.27
-40.90
-37.71
-30.62
-20.56
-9.18
1.79
11.12
18.35
23.64
27.50
30.38
32.40
33.44
33.29
31.90
29.55
26.80
24.36
22.80
22.31
22.64
23.21
23.35
22.58
20.78
18.19
15.20
12.15
9.18
6.19
3.00
-0.47
-4.12
-7.66
-10.79
-13.37
-15.54
-17.67
-20.19
-23.43
-27.45
-32.10
-37.09
-42.06
-46.52
-49.82
-51.10
-49.51
-44.55
-36.39
-25.98
-14.84
-4.54
3.81
9.83
13.87
16.60
18.63
20.19
21.11
21.08
19.92
17.76
15.15
12.84
11.53
11.59
12.94
15.04
17.22
18.89
19.81
20.08
19.99
19.72
19.24
18.27
16.46
13.62
9.91
5.83
2.05
-0.88
-2.80
-3.99
-5.05
-6.66
-9.19
-12.60
-16.38
-19.87
-22.54
-24.33
-25.66
-27.20
-29.56
-33.01
-37.34
-42.01
-46.41
-50.01
-52.51
-53.65
-53.20
-50.90
-46.62
-40.49
-33.08
-25.24
-17.92
-11.88
-7.40
-4.26
-1.85
0.50
3.31
6.77
10.71
14.80
18.74
22.47
26.08
29.75
33.49
37.07
40.06
42.03
42.81
42.54
41.61
40.39
39.01
37.28
34.88
31.51
27.23
22.38
17.58
13.32
9.80
6.82
3.87
0.44
-3.70
-8.31
-12.84
-16.67
-19.46
-21.31
-22.77
-24.54
-27.22
-31.06
-35.89
-41.23
-46.36
-50.48
-52.79
-52.63
-49.64
-43.84
-35.65
-25.78
-15.13
-4.56
5.16
13.34
19.45
23.20
24.62
24.16
22.56
20.62
18.95
17.79
17.01
16.39
15.72
15.06
14.66
14.83
15.75
17.29
19.01
20.28
20.54
19.55
17.47
14.83
12.25
10.15
8.57
7.16
5.45
3.13
0.27
-2.72
-5.35
-7.32
-8.74
-10.05
-11.83
-14.49
-18.17
-22.68
-27.69
-32.80
-37.62
-41.62
-44.10
-44.23
-41.34
-35.25
-26.45
-16.12
-5.75
3.36
10.42
15.32
18.40
20.16
20.93
20.84
19.88
18.07
15.56
12.74
10.14
8.25
7.42
7.73
8.93
10.58
12.22
13.45
14.14
14.31
14.07
13.52
12.61
11.20
9.18
6.59
3.66
0.78
-1.66
-3.49
-4.80
-6.00
-7.56
-9.83
-12.87
-16.46
-20.29
-24.17
-28.13
-32.30
-36.59
-40.47
-42.93
-42.78
-39.15
-31.98
-22.09
-10.98
-0.35
8.48
14.91
19.00
21.22
22.11
21.99
20.98
19.10
16.58
13.86
11.61
10.47
10.76
12.33
14.59
16.79
18.36
19.10
19.21
19.11
19.15
19.34
19.35
18.57
16.46
12.81
7.93
2.53
-2.56
-6.79
-10.08
-12.87
-15.83
-19.46
-23.86
-28.66
-33.23
-36.97
-39.44
-40.36
-39.48
-36.49
-31.15
-23.48
-14.00
-3.70
6.16
14.48
20.64
24.64
26.90
27.98
28.26
27.80
26.50
24.32
21.49
18.58
16.29
15.20
15.49
16.82
18.55
19.93
20.42
19.86
18.41
16.41
14.14
11.69
8.97
5.83
2.20
-1.79
-5.83
-9.55
-12.73
-15.40
-17.91
-20.73
-24.34
-28.94
-34.22
-39.45
-43.55
-45.40
-44.30
-40.12
-33.38
-24.99
-15.95
-6.97
1.53
9.31
15.99
21.00
23.74
23.88
21.67
18.04
14.20
11.28
9.85
9.81
10.55
11.45
12.15
12.73
13.48
14.57
15.81
16.57
16.09
13.79
9.74
4.58
-0.68
-5.18
-8.58
-11.21
-13.80
-17.00
-21.05
-25.70
-30.50
-35.11
-39.43
-43.49
-47.03
-49.33
-49.25
-45.82
-38.72
-28.63
-17.07
-5.84
3.59
10.51
14.92
17.31
18.20
17.98
16.81
14.85
12.33
9.77
7.91
7.49
8.97
12.27
16.64
20.87
23.65
24.02
21.77
17.42
11.98
6.50
1.69
-2.26
-5.58
-8.65
-11.75
-14.89
-17.91
-20.73
-23.50
-26.64
-30.56
-35.26
-40.04
-43.53
-44.09
-40.57
-32.76
-21.55
-8.63
4.22
15.63
24.93
31.96
36.81
39.48
39.90
38.08
34.28
29.12
23.50
18.41
14.70
12.87
12.95
14.55
16.92
19.19
20.62
20.75
19.51
17.16
14.12
10.69
7.03
3.16
-0.98
-5.33
-9.80
-14.37
-19.16
-24.43
-30.33
-36.60
-42.30
-45.97
-46.02
-41.42
-32.21
-19.62
-5.65
7.57
18.55
26.73
32.32
35.88
37.85
38.33
37.15
34.30
30.15
25.49
21.34
18.53
17.41
17.75
18.93
20.22
21.14
21.51
21.36
20.67
19.31
16.90
13.19
8.16
2.23
-3.82
-9.17
-13.27
-16.16
-18.48
-21.22
-25.27
-30.93
-37.63
-43.98
-48.18
-48.64
-44.55
-36.21
-24.85
-12.16
0.25
11.25
20.26
27.11
31.78
34.19
34.34
32.44
28.99
24.84
20.95
18.08
16.59
16.37
16.92
17.70
18.29
18.53
18.46
18.11
17.34
15.82
13.16
9.20
4.16
-1.35
-6.57
-10.94
-14.35
-17.19
-20.18
-24.09
-29.34
-35.90
-43.15
-50.00
-55.12
-57.20
-55.30
-49.17
-39.27
-26.80
-13.33
-0.39
10.82
19.65
25.82
29.39
30.49
29.41
26.66
22.98
19.37
16.74
15.74
16.52
18.65
21.37
23.82
25.42
25.90
25.38
24.11
22.28
19.90
16.78
12.70
7.63
1.83
-4.16
-9.71
-14.39
-18.18
-21.49
-25.09
-29.71
-35.81
-43.28
-51.43
-59.03
-64.57
-66.60
-64.10
-56.83
-45.45
-31.38
-16.40
-2.12
10.37
20.65
28.81
35.10
39.61
42.26
42.93
41.75
39.27
36.36
33.95
32.65
32.55
33.34
34.54
35.79
36.99
38.18
39.32
40.07
39.95
38.46
35.39
30.94
25.55
19.79
14.09
8.66
3.58
-1.18
-5.74
-10.36
-15.51
-21.79
-29.54
-38.60
-48.00
-56.09
-60.96
-61.09
-55.89
-45.96
-32.83
-18.47
-4.63
7.59
17.82
26.14
32.77
37.76
40.95
42.19
41.55
39.49
36.72
34.08
32.20
31.37
31.57
32.53
33.90
35.32
36.51
37.22
37.27
36.60
35.23
33.26
30.81
27.93
24.66
21.01
17.07
12.98
8.97
5.20
1.72
-1.62
-5.03
-8.75
-12.94
-17.65
-22.92
-28.83
-35.55
-43.14
-51.32
-59.29
-65.67
-68.74
-67.04
-59.86
-47.71
-32.26
-15.84
-0.68
11.68
20.77
26.97
31.09
33.83
35.53
36.25
36.00
35.00
33.71
32.64
32.18
32.42
33.29
34.65
36.39
38.39
40.47
42.23
43.14
42.74
40.81
37.52
33.31
28.72
24.20
20.02
16.24
12.82
9.68
6.70
3.78
0.81
-2.29
-5.62
-9.25
-13.34
-18.07
-23.64
-30.12
-37.29
-44.57
-50.95
-55.25
-56.38
-53.68
-47.18
-37.57
-26.05
-13.91
-2.24
8.20
17.00
23.94
28.86
31.66
32.41
31.47
29.51
27.44
26.05
25.82
26.75
28.47
30.44
32.26
33.83
35.26
36.71
38.07
38.91
38.53
36.35
32.27
26.81
20.97
15.85
12.07
9.58
7.68
5.48
2.39
-1.60
-5.91
-9.78
-12.68
-14.58
-15.95
-17.50
-19.78
-23.04
-27.18
-31.94
-36.98
-41.94
-46.28
-49.20
-49.70
-46.85
-40.26
-30.31
-18.30
-6.01
4.83
13.13
18.68
21.98
23.79
24.64
24.59
23.37
20.71
16.79
12.33
8.42
6.06
5.74
7.19
9.54
11.73
12.88
12.66
11.23
9.04
6.50
3.88
1.17
-1.66
-4.63
-7.63
-10.55
-13.36
-16.26
-19.55
-23.53
-28.26
-33.50
-38.73
-43.41
-47.23
-50.20
-52.67
-54.99
-57.25
-58.97
-59.16
-56.63
-50.47
-40.61
-27.90
-14.03
-0.90
9.96
17.83
22.85
25.65
26.91
26.99
25.93
23.67
20.40
16.74
13.61
11.93
12.18
14.21
17.21
20.07
21.82
21.98
20.73
18.75
16.86
15.57
14.83
14.02
12.35
9.23
4.65
-0.81
-6.29
-11.05
-14.82
-17.77
-20.37
-23.10
-26.19
-29.72
-33.70
-38.15
-43.04
-48.15
-52.79
-55.87
-56.12
-52.49
-44.65
-33.20
-19.48
-5.27
7.79
18.55
26.47
31.49
33.77
33.56
31.15
27.08
22.16
17.51
14.25
13.14
14.37
17.32
20.95
24.08
25.85
25.98
24.68
22.50
19.92
17.20
14.31
11.17
7.74
4.21
0.90
-1.90
-4.05
-5.68
-7.07
-8.56
-10.37
-12.61
-15.28
-18.41
-21.94
-25.73
-29.35
-32.07
-32.94
-31.12
-26.28
-18.79
-9.63
-0.11
8.60
15.82
21.39
25.42
28.12
29.50
29.44
27.85
24.90
21.04
16.90
13.03
9.79
7.28
5.45
4.19
3.49
3.31
3.57
4.05
4.39
4.21
3.20
1.29
-1.39
-4.54
-7.83
-11.02
-14.01
-16.85
-19.64
-22.49
-25.43
-28.53
-31.86
-35.50
-39.42
-43.25
-46.18
-47.10
-44.89
-38.99
-29.71
-18.31
-6.59
3.70
11.47
16.49
19.16
20.13
19.84
18.44
15.93
12.48
8.54
4.85
2.12
0.81
0.99
2.42
4.72
7.50
10.29
12.50
13.47
12.57
9.55
4.77
-0.92
-6.41
-10.84
-13.91
-15.91
-17.48
-19.34
-21.96
-25.54
-30.05
-35.10
-40.02
-43.77
-45.21
-43.41
-38.11
-29.89
-20.02
-10.01
-1.00
6.48
12.48
17.28
20.98
23.35
24.05
22.88
20.06
16.32
12.61
9.81
8.40
8.34
9.19
10.39
11.48
12.23
12.57
12.43
11.70
10.17
7.73
4.48
0.78
-2.83
-5.87
-8.16
-9.87
-11.54
-13.84
-17.38
-22.41
-28.64
-35.17
-40.58
-43.34
-42.29
-37.09
-28.46
-17.89
-7.17
2.28
9.77
15.34
19.41
22.39
24.37
25.16
24.50
22.34
18.99
15.02
11.12
7.88
5.68
4.63
4.63
5.40
6.51
7.43
7.64
6.69
4.37
0.82
-3.46
-7.79
-11.51
-14.25
-16.04
-17.31
-18.63
-20.49
-23.15
-26.59
-30.56
-34.57
-37.99
-40.01
-39.80
-36.69
-30.46
-21.47
-10.70
0.47
10.69
18.89
24.57
27.74
28.81
28.31
26.77
24.64
22.23
19.82
17.68
16.08
15.22
15.21
15.92
17.04
18.14
18.75
18.47
17.05
14.45
10.85
6.62
2.20
-2.03
-5.86
-9.30
-12.52
-15.79
-19.36
-23.49
-28.38
-34.14
-40.62
-47.25
-53.02
-56.60
-56.71
-52.70
-44.76
-33.98
-21.91
-10.07
0.57
9.66
17.28
23.54
28.28
31.13
31.73
30.13
26.92
23.11
19.73
17.44
16.35
16.13
16.34
16.71
17.32
18.33
19.76
21.25
22.14
21.74
19.68
16.15
11.84
7.55
3.85
0.89
-1.72
-4.61
-8.43
-13.56
-19.95
-27.08
-34.03
-39.59
-42.55
-42.02
-37.68
-29.88
-19.56
-7.99
3.52
13.88
22.37
28.60
32.49
34.17
33.84
31.79
28.37
24.02
19.32
15.00
11.84
10.43
11.00
13.27
16.49
19.71
22.02
22.84
22.02
19.76
16.49
12.62
8.45
4.14
-0.24
-4.58
-8.70
-12.43
-15.74
-18.88
-22.34
-26.69
-32.17
-38.43
-44.39
-48.49
-49.20
-45.62
-37.82
-26.91
-14.61
-2.70
7.59
15.79
22.07
26.89
30.58
33.14
34.29
33.80
31.77
28.76
25.58
22.98
21.29
20.34
19.67
18.90
18.02
17.45
17.76
19.31
21.94
25.04
27.68
29.15
29.08
27.59
25.06
21.90
18.36
14.46
10.09
5.05
-0.76
-7.37
-14.73
-22.65
-30.84
-38.77
-45.65
-50.52
-52.40
-50.58
-44.94
-36.05
-25.05
-13.40
-2.45
6.88
14.23
19.65
23.35
25.46
25.95
24.76
22.04
18.33
14.46
11.35
9.65
9.44
10.27
11.37
12.03
11.89
11.04
9.85
8.73
7.86
7.14
6.24
4.80
2.63
-0.21
-3.43
-6.70
-9.74
-12.53
-15.21
-18.06
-21.36
-25.32
-30.08
-35.64
-41.88
-48.35
-54.21
-58.25
-59.16
-55.93
-48.26
-36.75
-22.84
-8.35
4.97
15.94
24.06
29.52
32.81
34.49
34.89
34.14
32.31
29.62
26.57
23.87
22.27
22.22
23.68
26.09
28.67
30.64
31.60
31.54
30.74
29.48
27.77
25.32
21.72
16.74
10.52
3.69
-2.92
-8.53
-12.78
-15.85
-18.30
-20.86
-24.12
-28.38
-33.57
-39.31
-44.99
-49.78
-52.70
-52.81
-49.41
-42.37
-32.28
-20.32
-7.94
3.55
13.26
20.82
26.16
29.32
30.32
29.26
26.46
22.56
18.42
14.94
12.72
11.98
12.48
13.81
15.51
17.22
18.66
19.61
19.80
18.92
16.71
13.06
8.06
2.12
-4.20
-10.26
-15.55
-19.83
-23.20
-26.13
-29.26
-33.21
-38.37
-44.71
-51.67
-58.21
-62.98
-64.68
-62.41
-56.00
-46.10
-33.96
-21.10
-8.78
2.14
11.22
18.27
23.03
25.23
24.72
21.82
17.37
12.73
9.28
8.02
9.20
12.35
16.62
21.14
25.37
29.08
32.21
34.61
35.98
35.87
34.01
30.43
25.59
20.18
14.93
10.32
6.45
3.04
-0.45
-4.62
-9.83
-16.09
-22.80
-28.88
-32.97
-33.85
-30.76
-23.70
-13.36
-0.90
12.31
24.97
36.02
44.65
50.38
53.07
52.90
50.37
46.15
40.99
35.57
30.45
26.12
22.94
21.13
20.72
21.46
22.84
24.20
24.90
24.50
22.78
19.84
15.92
11.35
6.49
1.61
-3.06
-7.34
-11.14
-14.43
-17.28
-19.88
-22.53
-25.59
-29.47
-34.45
-40.55
-47.28
-53.67
-58.33
-59.86
-57.26
-50.29
-39.56
-26.32
-12.13
1.51
13.38
22.66
28.87
31.90
32.04
29.94
26.57
22.94
19.87
17.74
16.59
16.18
16.33
17.02
18.42
20.62
23.48
26.46
28.80
29.78
29.02
26.59
22.94
18.59
13.97
9.21
4.30
-0.75
-5.82
-10.69
-15.07
-18.85
-22.05
-24.89
-27.64
-30.64
-34.28
-38.89
-44.56
-50.84
-56.61
-60.24
-60.06
-55.10
-45.57
-32.90
-19.22
-6.57
3.91
12.14
18.89
25.05
31.04
36.47
40.37
41.76
40.18
36.04
30.53
25.17
21.30
19.58
19.88
21.44
23.24
24.40
24.44
23.42
21.75
19.99
18.56
17.55
16.68
15.42
13.20
9.69
4.93
-0.64
-6.28
-11.22
-14.95
-17.38
-18.98
-20.56
-23.03
-27.05
-32.68
-39.27
-45.55
-50.00
-51.24
-48.52
-41.80
-31.84
-19.90
-7.42
4.25
14.13
21.64
26.63
29.31
30.10
29.53
28.09
26.15
23.93
21.51
18.98
16.50
14.30
12.70
12.00
12.38
13.79
15.98
18.48
20.69
22.05
22.02
20.24
16.64
11.41
5.11
-1.44
-7.39
-12.04
-15.20
-17.27
-19.13
-21.84
-26.27
-32.67
-40.54
-48.73
-55.68
-59.91
-60.37
-56.73
-49.46
-39.63
-28.63
-17.72
-7.76
0.95
8.52
15.15
20.91
25.53
28.63
29.93
29.60
28.28
26.90
26.29
26.85
28.39
30.26
31.71
32.31
32.10
31.59
31.41
31.93
32.97
33.88
33.76
31.94
28.28
23.28
17.74
12.45
7.81
3.73
-0.24
-4.58
-9.59
-15.31
-21.62
-28.32
-35.13
-41.57
-46.85
-49.90
-49.69
-45.64
-38.05
-28.13
-17.70
-8.48
-1.59
2.88
5.56
7.39
9.04
10.61
11.75
12.04
11.39
10.14
9.00
8.62
9.30
10.86
12.75
14.38
15.34
15.55
15.13
14.20
12.69
10.31
6.77
1.94
-3.95
-10.30
-16.47
-22.02
-26.87
-31.30
-35.66
-40.05
-44.27
-47.93
-50.75
-52.83
-54.55
-56.30
-58.02
-59.02
-58.10
-54.11
-46.49
-35.66
-22.89
-9.87
1.90
11.57
18.92
24.15
27.45
28.85
28.30
25.84
21.95
17.55
13.78
11.59
11.42
13.04
15.65
18.23
19.96
20.37
19.53
17.82
15.69
13.49
11.25
8.80
5.87
2.31
-1.72
-5.83
-9.48
-12.32
-14.25
-15.57
-16.78
-18.44
-20.96
-24.50
-28.98
-34.04
-39.03
-43.00
-44.84
-43.53
-38.49
-29.87
-18.54
-6.02
6.06
16.35
24.10
29.19
32.00
33.10
32.98
31.99
30.35
28.23
25.89
23.70
22.06
21.26
21.46
22.51
24.11
25.82
27.24
28.14
28.41
28.02
26.92
25.01
22.14
18.25
13.51
8.32
3.24
-1.23
-4.88
-7.92
-10.90
-14.46
-19.01
-24.56
-30.55
-36.05
-39.96
-41.30
-39.50
-34.55
-26.95
-17.59
-7.52
2.24
10.84
17.71
22.51
25.18
25.85
24.81
22.51
19.49
16.30
13.42
11.21
9.84
9.34
9.68
10.77
12.46
14.55
16.70
18.41
19.21
18.71
16.81
13.71
9.84
5.68
1.54
-2.48
-6.40
-10.34
-14.32
-18.37
-22.55
-26.93
-31.48
-35.87
-39.40
-41.09
-40.03
-35.75
-28.54
-19.39
-9.67
-0.73
6.54
11.80
15.18
17.06
17.79
17.64
16.70
15.10
13.06
10.99
9.41
8.87
9.61
11.51
14.01
16.33
17.79
18.12
17.51
16.42
15.27
14.13
12.62
10.19
6.43
1.45
-4.12
-9.30
-13.29
-15.82
-17.35
-18.87
-21.37
-25.48
-31.10
-37.52
-43.64
-48.31
-50.59
-49.87
-45.90
-38.81
-29.17
-17.88
-6.12
4.91
14.20
21.14
25.59
27.72
27.85
26.43
23.90
20.73
17.40
14.38
12.00
10.41
9.56
9.28
9.37
9.68
10.11
10.58
10.97
11.06
10.52
9.01
6.27
2.23
-2.84
-8.46
-13.98
-18.88
-22.97
-26.48
-30.00
-34.23
-39.60
-45.98
-52.63
-58.29
-61.58
-61.40
-57.30
-49.61
-39.44
-28.40
-18.28
-10.63
-6.37
-5.54
-7.34
-10.39
-13.28
-15.04
-15.47
-15.04
-14.58
-14.69
-15.45
-16.30
-16.33
-14.71
-11.03
-5.45
1.43
8.86
16.17
22.89
28.77
33.81
38.27
42.86
48.63
56.67
67.54
80.73
94.52
106.38
113.80
115.29
110.78
101.44
89.02
75.16
60.95
47.16
34.58
24.28
17.44
14.90
16.65
21.71
28.35
34.71
39.37
41.66
41.66
39.83
36.66
32.40
27.13
20.91
14.09
7.33
1.49
-2.66
-4.80
-5.13
-4.35
-3.34
-2.89
-3.46
-5.12
-7.70
-10.97
-14.76
-19.05
-23.82
-28.98
-34.21
-39.06
-43.04
-45.87
-47.59
-48.64
-49.69
-51.47
-54.52
-58.98
-64.50
-70.23
-75.10
-78.05
-78.32
-75.70
-70.48
-63.40
-55.37
-47.23
-39.64
-33.10
-28.03
-24.72
-23.40
-24.07
-26.39
-29.68
-32.95
-35.22
-35.70
-34.15
-30.85
-26.55
-22.12
-18.32
-15.68
-14.54
-15.11
-17.50
-21.62
-26.98
-32.74
-37.86
-41.49
-43.25
-43.37
-42.51
-41.46
-40.86
-41.08
-42.35
-44.85
-48.75
-54.04
-60.37
-66.85
-72.15
-74.82
-73.68
-68.21
-58.69
-46.11
-31.85
-17.30
-3.57
8.57
18.62
26.20
31.01
32.89
31.97
28.87
24.67
20.66
18.04
17.49
18.99
21.91
25.32
28.39
30.67
32.08
32.82
33.04
32.71
31.66
29.68
26.72
23.02
18.93
14.87
11.10
7.69
4.50
1.27
-2.33
-6.58
-11.59
-17.15
-22.72
-27.43
-30.31
-30.56
-27.76
-21.99
-13.78
-3.97
6.47
16.60
25.63
33.04
38.54
42.04
43.60
43.39
41.68
38.84
35.39
31.98
29.26
27.71
27.46
28.30
29.74
31.21
32.27
32.71
32.53
31.80
30.56
28.75
26.31
23.21
19.59
15.73
11.94
8.47
5.40
2.67
0.10
-2.58
-5.68
-9.50
-14.22
-19.69
-25.26
-29.82
-32.07
-30.93
-25.95
-17.58
-6.93
4.51
15.38
24.74
32.16
37.51
40.85
42.25
41.79
39.75
36.57
32.90
29.47
26.87
25.40
25.02
25.39
26.06
26.65
26.95
26.91
26.54
25.79
24.49
22.42
19.42
15.54
11.11
6.58
2.42
-1.07
-3.87
-6.20
-8.47
-11.18
-14.74
-19.39
-24.96
-30.77
-35.67
-38.32
-37.54
-32.84
-24.57
-13.89
-2.33
8.62
17.95
25.30
30.78
34.68
37.20
38.37
38.10
36.41
33.60
30.29
27.23
25.06
24.03
23.95
24.30
24.57
24.51
24.15
23.77
23.57
23.48
23.11
21.90
19.45
15.73
11.13
6.41
2.26
-0.90
-3.12
-4.81
-6.61
-9.08
-12.58
-17.19
-22.61
-28.25
-33.20
-36.43
-36.91
-33.98
-27.59
-18.34
-7.42
3.80
14.05
22.49
28.79
33.02
35.47
36.49
36.30
35.06
32.93
30.13
27.07
24.21
21.99
20.64
20.12
20.11
20.23
20.17
19.84
19.28
18.59
17.76
16.61
14.86
12.30
8.93
5.01
1.00
-2.64
-5.64
-7.98
-9.97
-12.05
-14.67
-18.10
-22.38
-27.22
-32.04
-36.01
-38.13
-37.53
-33.70
-26.72
-17.33
-6.74
3.71
12.89
20.20
25.49
28.91
30.71
31.04
30.02
27.82
24.78
21.44
18.39
16.13
14.88
14.53
14.73
15.06
15.18
14.96
14.45
13.79
13.10
12.34
11.34
9.81
7.54
4.47
0.82
-3.04
-6.66
-9.69
-12.00
-13.68
-15.04
-16.43
-18.23
-20.70
-23.92
-27.71
-31.55
-34.65
-36.05
-34.93
-30.85
-23.97
-15.01
-5.09
4.57
12.93
19.36
23.68
26.09
26.96
26.75
25.79
24.35
22.59
20.68
18.83
17.21
15.93
15.03
14.41
13.97
13.66
13.47
13.41
13.42
13.28
12.63
11.12
8.53
4.92
0.62
-3.85
-7.99
-11.47
-14.29
-16.69
-19.10
-21.91
-25.30
-29.17
-33.03
-36.14
-37.60
-36.62
-32.77
-26.22
-17.71
-8.44
0.33
7.69
13.17
16.81
18.89
19.68
19.30
17.79
15.26
12.01
8.59
5.64
3.67
2.90
3.20
4.17
5.32
6.27
6.86
7.07
6.95
6.46
5.43
3.66
1.02
-2.40
-6.25
-10.01
-13.27
-15.79
-17.64
-19.11
-20.58
-22.36
-24.69
-27.67
-31.28
-35.29
-39.22
-42.26
-43.47
-42.00
-37.44
-30.08
-20.84
-11.01
-1.82
5.87
11.76
15.97
18.83
20.56
21.25
20.85
19.39
17.16
14.71
12.68
11.61
11.65
12.56
13.76
14.68
14.97
14.63
13.90
13.09
12.30
11.45
10.26
8.45
5.89
2.68
-0.90
-4.45
-7.66
-10.37
-12.65
-14.77
-17.08
-19.91
-23.47
-27.75
-32.41
-36.79
-39.96
-40.94
-39.01
-33.95
-26.17
-16.70
-6.78
2.40
10.03
15.78
19.75
22.20
23.43
23.62
22.92
21.42
19.38
17.18
15.27
14.02
13.60
13.86
14.45
14.91
14.91
14.37
13.44
12.37
11.28
10.13
8.71
6.77
4.20
1.08
-2.30
-5.54
-8.34
-10.56
-12.30
-13.88
-15.68
-18.10
-21.37
-25.47
-30.13
-34.71
-38.39
-40.31
-39.73
-36.33
-30.24
-22.05
-12.68
-3.14
5.66
13.07
18.77
22.66
24.87
25.56
24.94
23.24
20.79
18.02
15.43
13.47
12.48
12.52
13.42
14.78
16.10
16.96
17.07
16.32
14.84
12.82
10.47
7.93
5.24
2.40
-0.57
-3.56
-6.38
-8.85
-10.90
-12.59
-14.14
-15.81
-17.81
-20.29
-23.33
-26.90
-30.82
-34.64
-37.64
-38.92
-37.66
-33.45
-26.52
-17.72
-8.25
0.73
8.40
14.46
18.88
21.83
23.34
23.44
22.18
19.79
16.73
13.64
11.12
9.61
9.22
9.78
10.89
12.10
13.01
13.38
13.13
12.27
10.93
9.23
7.23
4.97
2.46
-0.29
-3.18
-6.05
-8.67
-10.85
-12.51
-13.79
-15.01
-16.65
-19.10
-22.55
-26.83
-31.36
-35.23
-37.41
-37.03
-33.58
-27.17
-18.48
-8.63
1.10
9.64
16.30
20.83
23.32
24.03
23.25
21.30
18.53
15.38
12.38
10.02
8.64
8.30
8.80
9.78
10.84
11.74
12.33
12.60
12.50
12.02
11.08
9.61
7.60
5.06
2.10
-1.09
-4.32
-7.33
-9.98
-12.26
-14.31
-16.37
-18.76
-21.68
-25.15
-28.94
-32.57
-35.32
-36.42
-35.21
-31.34
-24.97
-16.72
-7.56
1.47
9.53
16.13
21.12
24.50
26.26
26.36
24.79
21.77
17.79
13.71
10.41
8.53
8.25
9.24
10.87
12.52
13.78
14.53
14.87
14.83
14.36
13.29
11.48
8.93
5.83
2.46
-0.87
-3.91
-6.58
-8.93
-11.08
-13.23
-15.59
-18.33
-21.51
-25.08
-28.80
-32.25
-34.85
-35.90
-34.80
-31.19
-25.17
-17.32
-8.55
0.11
7.84
14.18
18.98
22.29
24.12
24.44
23.23
20.70
17.31
13.77
10.82
8.97
8.36
8.76
9.67
10.57
11.14
11.30
11.14
10.82
10.38
9.66
8.37
6.25
3.22
-0.45
-4.25
-7.59
-10.05
-11.58
-12.52
-13.41
-14.80
-17.00
-20.02
-23.52
-26.98
-29.74
-31.12
-30.50
-27.52
-22.18
-14.87
-6.43
2.17
10.01
16.47
21.21
24.14
25.28
24.67
22.45
18.97
14.84
10.88
7.81
6.09
5.73
6.36
7.43
8.50
9.36
10.00
10.49
10.79
10.74
10.05
8.48
5.98
2.74
-0.86
-4.38
-7.45
-9.94
-11.91
-13.61
-15.33
-17.39
-19.96
-23.05
-26.37
-29.32
-31.14
-31.01
-28.42
-23.30
-16.12
-7.73
0.85
8.70
15.19
19.91
22.75
23.70
22.90
20.63
17.36
13.71
10.34
7.82
6.44
6.21
6.84
7.91
9.02
9.95
10.63
11.07
11.21
10.88
9.86
8.02
5.40
2.26
-1.01
-4.16
-7.03
-9.69
-12.29
-14.99
-17.90
-21.06
-24.46
-27.91
-30.98
-33.00
-33.14
-30.77
-25.69
-18.36
-9.75
-1.05
6.72
12.95
17.54
20.59
22.27
22.59
21.51
19.13
15.79
12.10
8.76
6.37
5.20
5.17
5.99
7.27
8.67
9.93
10.85
11.25
10.98
9.93
8.09
5.53
2.45
-0.92
-4.28
-7.33
-9.89
-11.92
-13.60
-15.27
-17.32
-20.03
-23.36
-26.96
-30.16
-32.14
-32.15
-29.72
-24.78
-17.79
-9.56
-1.09
6.70
13.17
18.02
21.22
22.86
23.04
21.87
19.54
16.42
13.05
10.08
8.01
7.10
7.25
8.09
9.16
10.06
10.63
10.83
10.76
10.44
9.85
8.82
7.18
4.86
1.99
-1.13
-4.17
-6.86
-9.15
-11.20
-13.32
-15.84
-18.95
-22.51
-26.14
-29.16
-30.80
-30.38
-27.53
-22.35
-15.37
-7.49
0.32
7.27
12.89
17.09
19.91
21.46
21.72
20.67
18.39
15.24
11.87
9.02
7.25
6.79
7.40
8.57
9.78
10.69
11.20
11.38
11.23
10.67
9.52
7.63
5.01
1.84
-1.50
-4.68
-7.43
-9.66
-11.47
-13.14
-14.97
-17.25
-20.12
-23.53
-27.10
-30.18
-31.89
-31.42
-28.27
-22.50
-14.73
-6.03
2.48
9.91
15.79
20.04
22.73
23.95
23.72
22.14
19.48
16.28
13.23
10.94
9.74
9.59
10.14
10.92
11.53
11.77
11.64
11.27
10.76
10.07
9.06
7.51
5.32
2.53
-0.56
-3.62
-6.36
-8.68
-10.69
-12.64
-14.80
-17.37
-20.43
-23.87
-27.36
-30.34
-32.10
-31.92
-29.33
-24.29
-17.27
-9.10
-0.75
6.99
13.57
18.74
22.38
24.46
24.96
23.95
21.65
18.49
15.03
11.91
9.62
8.42
8.32
9.04
10.20
11.41
12.36
12.88
12.90
12.40
11.35
9.72
7.45
4.61
1.35
-2.00
-5.08
-7.61
-9.45
-10.77
-11.89
-13.22
-15.09
-17.58
-20.53
-23.50
-25.84
-26.88
-26.03
-23.00
-17.89
-11.23
-3.82
3.51
10.10
15.51
19.59
22.29
23.63
23.64
22.45
20.25
17.38
14.26
11.30
8.83
7.11
6.26
6.27
6.99
8.12
9.35
10.34
10.84
10.70
9.89
8.42
6.40
4.06
1.65
-0.54
-2.34
-3.76
-5.01
-6.39
-8.25
-10.75
-13.87
-17.37
-20.83
-23.68
-25.34
-25.25
-23.05
-18.68
-12.47
-5.04
2.79
10.24
16.75
21.95
25.70
27.94
28.67
27.97
26.03
23.24
20.15
17.38
15.43
14.57
14.76
15.68
16.88
17.95
18.60
18.70
18.31
17.50
16.35
14.90
13.14
11.05
8.69
6.17
3.69
1.46
-0.36
-1.77
-2.86
-3.91
-5.16
-6.83
-8.98
-11.50
-14.02
-16.04
-16.97
-16.37
-14.09
-10.37
-5.81
-1.12
3.05
6.29
8.45
9.49
9.38
8.03
5.42
1.72
-2.60
-6.86
-10.34
-12.53
-13.30
-12.85
-11.64
-10.12
-8.68
-7.55
-6.90
-6.82
-7.41
-8.66
-10.47
-12.64
-14.88
-16.95
-18.69
-20.08
-21.18
-22.17
-23.22
-24.54
-26.30
-28.52
-31.08
-33.61
-35.57
-36.33
-35.34
-32.29
-27.24
-20.57
-12.97
-5.20
2.00
8.12
12.86
16.09
17.80
18.09
17.13
15.19
12.72
10.20
8.10
6.74
6.18
6.29
6.79
7.46
8.14
8.75
9.22
9.40
9.07
7.99
6.04
3.27
-0.02
-3.49
-6.83
-9.88
-12.70
-15.47
-18.38
-21.62
-25.18
-28.86
-32.18
-34.48
-34.99
-33.13
-28.68
-21.97
-13.75
-5.03
3.26
10.46
16.21
20.48
23.30
24.74
24.88
23.87
22.00
19.73
17.56
15.91
14.93
14.51
14.34
14.08
13.59
12.90
12.24
11.74
11.36
10.81
9.76
7.99
5.56
2.77
0.02
-2.39
-4.45
-6.38
-8.55
-11.24
-14.58
-18.42
-22.38
-25.90
-28.28
-28.83
-27.04
-22.81
-16.50
-8.89
-0.97
6.34
12.43
17.10
20.43
22.64
23.86
24.16
23.57
22.13
20.05
17.69
15.48
13.83
12.94
12.75
12.95
13.15
13.02
12.46
11.58
10.54
9.47
8.31
6.95
5.30
3.39
1.37
-0.57
-2.39
-4.25
-6.42
-9.24
-12.89
-17.37
-22.38
-27.39
-31.66
-34.37
-34.84
-32.68
-27.94
-21.17
-13.23
-5.10
2.36
8.54
13.19
16.34
18.14
18.80
18.41
17.05
14.84
12.02
9.10
6.68
5.29
5.14
6.01
7.35
8.52
9.09
8.93
8.17
7.00
5.51
3.70
1.56
-0.82
-3.21
-5.40
-7.32
-9.13
-11.13
-13.68
-16.98
-21.02
-25.54
-30.04
-33.82
-36.10
-36.16
-33.63
-28.63
-21.76
-13.94
-6.07
1.23
7.65
13.10
17.47
20.57
22.19
22.23
20.92
18.79
16.48
14.60
13.45
13.05
13.17
13.52
13.92
14.25
14.48
14.54
14.32
13.64
12.40
10.59
8.33
5.76
3.03
0.20
-2.70
-5.60
-8.41
-11.07
-13.67
-16.46
-19.72
-23.61
-27.89
-31.89
-34.59
-34.93
-32.13
-26.04
-17.13
-6.49
4.48
14.36
22.11
27.20
29.75
30.36
29.94
29.35
29.20
29.71
30.71
31.80
32.58
32.83
32.60
32.25
32.22
32.89
34.36
36.33
38.18
39.13
38.51
35.96
31.79
27.19
24.20
25.16
31.76
43.79
58.67
71.75
77.75
72.69
55.30
27.49
-6.49
-41.53
-73.15
-98.34
-115.59
-124.61
-125.95
-120.77
-110.80
-98.19
-85.08
-73.25
-63.73
-56.75
-51.83
-48.11
-44.67
-40.81
-36.20
-30.88
-25.20
-19.58
-14.37
-9.67
-5.42
-1.47
2.31
5.90
9.11
11.68
13.30
13.81
13.18
11.58
9.38
6.97
4.72
2.82
1.20
-0.46
-2.56
-5.41
-9.04
-13.12
-16.93
-19.63
-20.40
-18.77
-14.68
-8.52
-1.02
6.97
14.68
21.49
27.03
31.07
33.52
34.36
33.65
31.63
28.65
25.21
21.79
18.85
16.69
15.43
15.07
15.45
16.24
17.07
17.53
17.29
16.18
14.27
11.81
9.05
6.20
3.33
0.40
-2.66
-5.84
-9.11
-12.49
-16.08
-19.94
-23.95
-27.64
-30.17
-30.62
-28.34
-23.32
-16.26
-8.29
-0.55
6.20
11.75
16.25
19.90
22.74
24.55
25.02
24.02
21.74
18.68
15.54
12.91
11.11
10.12
9.66
9.38
9.02
8.51
7.92
7.33
6.65
5.66
4.10
1.80
-1.11
-4.32
-7.46
-10.34
-13.03
-15.80
-18.94
-22.52
-26.31
-29.77
-32.25
-33.19
-32.22
-29.25
-24.44
-18.10
-10.64
-2.58
5.52
13.05
19.37
23.92
26.32
26.46
24.62
21.39
17.58
14.01
11.29
9.70
9.17
9.38
9.90
10.34
10.43
10.01
9.02
7.49
5.53
3.38
1.28
-0.51
-1.89
-2.93
-3.90
-5.16
-7.07
-9.87
-13.61
-18.21
-23.39
-28.74
-33.66
-37.39
-39.10
-38.11
-34.12
-27.34
-18.58
-8.99
0.23
8.14
14.24
18.51
21.19
22.63
23.11
22.75
21.66
19.98
17.95
15.91
14.18
13.02
12.48
12.44
12.65
12.86
12.86
12.59
12.03
11.21
10.16
8.80
7.09
4.98
2.50
-0.17
-2.81
-5.22
-7.31
-9.21
-11.20
-13.61
-16.69
-20.46
-24.65
-28.76
-32.05
-33.77
-33.27
-30.22
-24.76
-17.46
-9.27
-1.20
5.98
11.89
16.55
20.20
23.05
25.08
26.08
25.82
24.24
21.59
18.35
15.12
12.40
10.49
9.43
9.13
9.40
10.05
10.83
11.50
11.73
11.19
9.67
7.07
3.53
-0.61
-4.95
-9.10
-12.77
-15.89
-18.55
-20.94
-23.32
-25.89
-28.72
-31.67
-34.34
-36.10
-36.27
-34.27
-29.90
-23.41
-15.48
-7.01
1.11
8.27
14.12
18.59
21.62
23.17
23.14
21.58
18.76
15.26
11.84
9.18
7.72
7.46
8.11
9.22
10.36
11.27
11.81
11.91
11.49
10.46
8.70
6.20
3.06
-0.46
-4.04
-7.37
-10.29
-12.80
-15.13
-17.63
-20.63
-24.31
-28.53
-32.81
-36.33
-38.18
-37.56
-34.05
-27.79
-19.49
-10.23
-1.14
6.86
13.28
18.02
21.23
23.14
23.92
23.66
22.47
20.53
18.17
15.78
13.76
12.39
11.77
11.81
12.25
12.84
13.34
13.61
13.55
13.09
12.13
10.53
8.23
5.32
2.02
-1.30
-4.33
-6.90
-9.06
-11.07
-13.33
-16.19
-19.86
-24.28
-29.06
-33.47
-36.55
-37.39
-35.35
-30.34
-22.86
-13.87
-4.52
4.18
11.59
17.44
21.69
24.38
25.55
25.26
23.65
21.08
18.06
15.16
12.87
11.47
11.02
11.34
12.17
13.19
14.13
14.77
14.96
14.50
13.22
10.96
7.69
3.60
-0.89
-5.24
-8.95
-11.78
-13.84
-15.56
-17.48
-20.06
-23.51
-27.67
-32.06
-35.93
-38.41
-38.67
-36.18
-30.87
-23.28
-14.34
-5.22
3.11
10.02
15.29
18.95
21.10
21.81
21.12
19.20
16.45
13.45
10.85
9.13
8.45
8.68
9.46
10.44
11.36
12.08
12.57
12.74
12.50
11.65
10.04
7.61
4.45
0.82
-2.91
-6.35
-9.22
-11.50
-13.40
-15.36
-17.91
-21.41
-25.88
-30.81
-35.28
-38.16
-38.48
-35.72
-30.00
-22.02
-12.80
-3.41
5.23
12.55
18.28
22.40
25.02
26.28
26.34
25.34
23.47
21.04
18.41
16.01
14.16
13.02
12.55
12.56
12.86
13.28
13.74
14.13
14.32
14.10
13.26
11.66
9.27
6.14
2.44
-1.61
-5.75
-9.73
-13.32
-16.44
-19.13
-21.59
-24.07
-26.66
-29.21
-31.18
-31.84
-30.49
-26.83
-21.07
-13.92
-6.28
1.06
7.65
13.38
18.26
22.19
24.87
25.98
25.38
23.34
20.57
17.95
16.24
15.68
15.98
16.55
16.78
16.41
15.53
14.45
13.43
12.45
11.23
9.44
6.99
4.09
1.20
-1.23
-3.02
-4.28
-5.40
-6.76
-8.58
-10.85
-13.38
-16.00
-18.65
-21.40
-24.28
-27.12
-29.38
-30.28
-29.08
-25.37
-19.29
-11.50
-2.96
5.37
12.75
18.68
22.89
25.22
25.62
24.30
21.65
18.32
15.07
12.54
11.14
11.01
11.95
13.60
15.45
17.07
18.12
18.44
18.02
16.92
15.21
13.01
10.44
7.67
4.89
2.26
-0.18
-2.49
-4.87
-7.51
-10.59
-14.15
-18.08
-22.04
-25.54
-27.94
-28.66
-27.30
-23.78
-18.40
-11.72
-4.46
2.70
9.17
14.55
18.58
21.12
22.17
21.79
20.18
17.67
14.66
11.65
9.13
7.46
6.81
7.16
8.25
9.76
11.35
12.68
13.48
13.53
12.66
10.79
8.05
4.66
1.01
-2.49
-5.57
-8.21
-10.62
-13.17
-16.18
-19.71
-23.57
-27.17
-29.79
-30.70
-29.37
-25.59
-19.56
-11.91
-3.51
4.61
11.59
16.83
20.14
21.61
21.47
19.97
17.32
13.83
9.93
6.25
3.42
1.89
1.76
2.76
4.37
6.03
7.32
7.98
7.92
7.11
5.59
3.48
0.96
-1.72
-4.37
-6.86
-9.26
-11.72
-14.50
-17.75
-21.42
-25.17
-28.33
-30.13
-29.81
-27.00
-21.77
-14.73
-6.81
1.01
7.91
13.40
17.35
19.80
20.86
20.63
19.18
16.68
13.51
10.21
7.39
5.48
4.69
4.82
5.48
6.19
6.55
6.42
5.80
4.78
3.44
1.79
-0.19
-2.47
-5.00
-7.68
-10.45
-13.34
-16.47
-19.98
-23.89
-28.00
-31.81
-34.55
-35.44
-33.87
-29.64
-23.09
-15.00
-6.44
1.55
8.18
13.11
16.35
18.20
18.97
18.89
18.06
16.57
14.61
12.49
10.61
9.28
8.65
8.65
9.05
9.58
10.05
10.27
10.16
9.60
8.49
6.78
4.50
1.79
-1.09
-3.92
-6.57
-9.05
-11.49
-14.12
-17.14
-20.59
-24.25
-27.57
-29.75
-30.00
-27.75
-22.92
-15.99
-7.86
0.39
7.85
13.92
18.38
21.30
22.85
23.21
22.54
21.02
18.85
16.35
13.87
11.76
10.28
9.53
9.39
9.63
9.95
10.08
9.89
9.37
8.51
7.30
5.63
3.42
0.67
-2.45
-5.64
-8.58
-11.06
-13.15
-15.13
-17.37
-20.08
-23.17
-26.18
-28.41
-29.09
-27.67
-24.02
-18.42
-11.51
-4.04
3.26
9.85
15.40
19.68
22.52
23.81
23.54
21.90
19.26
16.19
13.32
11.18
10.09
10.03
10.77
11.89
12.99
13.77
14.14
14.08
13.59
12.61
11.02
8.76
5.97
2.99
0.30
-1.76
-3.15
-4.23
-5.59
-7.80
-11.12
-15.44
-20.26
-24.85
-28.44
-30.32
-29.93
-27.03
-21.72
-14.54
-6.32
1.91
9.29
15.21
19.46
22.10
23.30
23.24
22.05
19.91
17.07
13.95
11.01
8.67
7.18
6.55
6.62
7.08
7.63
8.01
8.07
7.71
6.85
5.44
3.46
0.91
-2.06
-5.25
-8.34
-11.06
-13.29
-15.08
-16.72
-18.59
-21.04
-24.14
-27.64
-30.92
-33.11
-33.39
-31.22
-26.60
-20.07
-12.55
-5.07
1.51
6.76
10.64
13.36
15.18
16.17
16.29
15.47
13.74
11.38
8.87
6.71
5.24
4.56
4.47
4.66
4.84
4.82
4.58
4.06
3.17
1.75
-0.32
-3.06
-6.30
-9.72
-13.01
-15.96
-18.56
-21.01
-23.63
-26.76
-30.73
-35.77
-41.98
-49.17
-56.73
-63.69
-68.80
-70.88
-69.14
-63.47
-54.47
-43.32
-31.43
-20.07
-10.22
-2.41
3.22
6.79
8.62
9.03
8.32
6.74
4.51
1.84
-1.01
-3.69
-5.86
-7.25
-7.75
-7.47
-6.65
-5.61
-4.55
-3.59
-2.73
-1.99
-1.39
-1.04
-1.02
-1.33
-1.82
-2.22
-2.29
-1.85
-1.00
0.03
0.84
1.05
0.36
-1.35
-3.94
-7.01
-9.92
-11.91
-12.31
-10.73
-7.18
-2.09
3.87
9.99
15.70
20.68
24.78
27.99
30.33
31.92
32.89
33.45
33.77
33.85
33.61
32.83
31.43
29.56
27.65
26.25
25.82
26.49
27.97
29.68
30.90
31.06
29.93
27.63
24.59
21.39
18.62
16.80
16.25
17.01
18.75
20.86
22.52
23.02
22.06
19.98
17.69
16.40
17.20
20.68
26.83
35.09
44.65
54.64
64.22
72.64
79.15
83.22
84.62
83.62
80.90
77.40
73.98
71.21
69.25
67.90
66.78
65.53
63.91
61.95
59.89
58.14
57.08
56.82
57.08
57.23
56.47
54.31
50.80
46.69
43.19
41.42
41.93
44.52
48.39
52.66
56.84
60.95
65.34
70.32
75.99
82.43
89.86
98.64
108.73
119.05
127.11
129.54
123.38
107.61
84.09
57.14
31.97
12.70
0.66
-5.84
-10.57
-17.70
-30.12
-48.61
-71.94
-97.76
-123.61
-147.64
-168.72
-186.09
-198.98
-206.66
-208.81
-206.08
-200.30
-194.00
-189.43
-187.59
-187.79
-187.98
-185.65
-178.80
-166.60
-149.55
-129.20
-107.76
-87.60
-70.85
-58.92
-52.01
-48.88
-47.01
-43.35
-35.31
-21.80
-3.72
16.33
34.96
49.17
57.24
59.05
55.75
49.20
41.21
33.27
26.36
21.09
17.68
16.05
15.77
16.18
16.57
16.51
16.01
15.52
15.65
16.80
18.79
20.90
22.05
21.35
18.56
14.20
9.35
5.10
2.03
-0.07
-2.05
-5.01
-9.75
-16.41
-24.41
-32.61
-39.69
-44.49
-46.30
-45.01
-41.06
-35.33
-28.89
-22.77
-17.71
-14.18
-12.28
-11.85
-12.45
-13.46
-14.17
-14.03
-12.73
-10.40
-7.45
-4.37
-1.57
0.78
2.62
3.87
4.42
4.12
2.97
1.20
-0.80
-2.64
-4.19
-5.65
-7.49
-10.12
-13.71
-18.08
-22.76
-27.26
-31.19
-34.30
-36.41
-37.23
-36.43
-33.66
-28.85
-22.34
-14.88
-7.44
-0.88
4.32
8.11
10.75
12.58
13.79
14.38
14.25
13.37
11.91
10.17
8.54
7.28
6.52
6.22
6.28
6.56
6.93
7.25
7.34
7.02
6.18
4.79
2.98
0.95
-1.12
-3.20
-5.35
-7.69
-10.19
-12.57
-14.25
-14.57
-13.01
-9.46
-4.29
1.78
7.91
13.44
17.92
21.19
23.26
24.17
24.01
22.94
21.19
19.08
16.95
15.07
13.57
12.51
11.88
11.64
11.75
12.12
12.61
12.97
12.95
12.33
11.08
9.34
7.41
5.52
3.77
2.00
-0.12
-2.88
-6.35
-10.16
-13.64
-15.95
-16.38
-14.69
-11.13
-6.41
-1.46
2.92
6.28
8.50
9.78
10.37
10.38
9.79
8.55
6.76
4.77
3.17
2.47
2.94
4.41
6.32
7.99
8.86
8.69
7.62
6.01
4.28
2.73
1.48
0.45
-0.57
-1.81
-3.41
-5.42
-7.80
-10.41
-13.06
-15.45
-17.12
-17.52
-16.10
-12.61
-7.33
-1.05
5.07
10.03
13.36
15.25
16.41
17.55
18.96
20.33
20.96
20.19
17.85
14.36
10.63
7.62
5.94
5.65
6.31
7.30
8.10
8.49
8.50
8.31
7.95
7.30
6.11
4.20
1.55
-1.68
-5.14
-8.48
-11.37
-13.48
-14.52
-14.21
-12.43
-9.26
-4.99
-0.09
4.94
9.63
13.57
16.45
18.03
18.18
16.96
14.59
11.46
7.98
4.59
1.63
-0.60
-1.88
-2.18
-1.68
-0.88
-0.44
-1.05
-3.12
-6.68
-11.30
-16.26
-20.83
-24.51
-27.15
-28.92
-30.13
-30.97
-31.52
-31.73
-31.57
-31.11
-30.49
-29.78
-28.87
-27.41
-24.99
-21.32
-16.49
-10.94
-5.45
-0.80
2.46
4.17
4.52
3.83
2.39
0.36
-2.18
-5.10
-8.08
-10.65
-12.29
-12.68
-11.85
-10.15
-8.15
-6.43
-5.48
-5.54
-6.71
-8.84
-11.68
-14.87
-18.07
-21.12
-24.04
-26.98
-30.08
-33.27
-36.28
-38.62
-39.88
-39.72
-38.02
-34.77
-30.05
-23.97
-16.81
-8.98
-1.10
6.16
12.28
16.91
19.93
21.34
21.17
19.50
16.54
12.74
8.68
5.05
2.36
0.85
0.38
0.59
1.00
1.19
0.90
-0.01
-1.54
-3.56
-5.84
-8.13
-10.17
-11.87
-13.28
-14.56
-15.91
-17.55
-19.61
-22.18
-25.34
-29.03
-33.01
-36.77
-39.53
-40.53
-39.28
-35.75
-30.46
-24.19
-17.73
-11.57
-5.92
-0.77
3.86
7.79
10.72
12.37
12.63
11.64
9.83
7.76
6.04
5.17
5.36
6.60
8.57
10.83
12.91
14.43
15.18
15.02
13.93
11.89
9.01
5.52
1.79
-1.70
-4.48
-6.25
-6.89
-6.51
-5.46
-4.24
-3.47
-3.71
-5.42
-8.70
-13.28
-18.50
-23.38
-26.83
-27.87
-25.91
-20.83
-13.10
-3.62
6.46
16.02
24.22
30.61
35.06
37.64
38.47
37.66
35.44
32.15
28.40
24.92
22.41
21.36
21.92
23.86
26.69
29.81
32.63
34.68
35.65
35.34
33.69
30.72
26.59
21.58
16.17
10.98
6.68
3.81
2.60
2.90
4.15
5.61
6.48
6.12
4.20
0.67
-4.26
-10.12
-16.20
-21.59
-25.27
-26.27
-24.03
-18.57
-10.61
-1.43
7.64
15.55
21.84
26.60
30.15
32.70
34.17
34.33
33.00
30.42
27.23
24.26
22.22
21.47
21.94
23.37
25.40
27.72
30.09
32.23
33.86
34.70
34.60
33.50
31.47
28.65
25.22
21.39
17.43
13.55
9.91
6.51
3.21
-0.16
-3.78
-7.71
-11.87
-16.03
-19.81
-22.69
-24.13
-23.62
-20.88
-15.96
-9.27
-1.48
6.63
14.39
21.24
26.88
31.17
34.13
35.83
36.41
36.03
34.90
33.27
31.41
29.55
27.85
26.33
24.93
23.58
22.33
21.46
21.37
22.44
24.78
28.16
31.96
35.40
37.81
38.78
38.23
36.30
33.26
29.35
24.87
20.11
15.43
11.19
7.65
4.98
3.27
2.58
2.94
4.38
6.82
10.01
13.66
17.50
21.42
25.43
29.54
33.58
37.14
39.62
40.52
39.72
37.65
35.24
33.61
33.64
35.70
39.44
43.95
48.08
50.77
51.29
49.38
45.16
39.12
31.98
24.59
17.72
11.80
6.75
1.94
-3.54
-10.52
-19.30
-29.54
-40.34
-50.67
-59.60
-66.48
-70.83
-72.15
-69.86
-63.55
-53.38
-40.40
-26.57
-14.32
-5.85
-2.45
-4.13
-9.77
-17.67
-26.18
-34.23
-41.48
-48.06
-54.26
-60.18
-65.62
-70.25
-73.68
-75.76
-76.46
-75.96
-74.54
-72.55
-70.44
-68.70
-67.79
-67.92
-68.98
-70.46
-71.70
-72.02
-71.07
-68.95
-66.18
-63.45
-61.36
-60.09
-59.35
-58.49
-56.76
-53.64
-48.98
-42.98
-35.99
-28.35
-20.34
-12.20
-4.26
3.02
9.20
13.97
17.28
19.33
20.48
21.08
21.45
21.84
22.51
23.72
25.65
28.28
31.35
34.37
36.81
38.26
38.50
37.54
35.47
32.29
27.94
22.36
15.66
8.29
0.93
-5.62
-10.79
-14.31
-16.23
-16.75
-15.93
-13.74
-10.11
-5.09
0.98
7.43
13.48
18.38
21.60
22.94
22.45
20.43
17.36
13.84
10.58
8.34
7.92
9.96
14.77
22.12
31.19
40.66
49.07
55.18
58.34
58.60
56.51
52.83
48.20
43.03
37.44
31.39
24.82
17.70
10.06
1.99
-6.26
-14.33
-21.66
-27.64
-31.72
-33.60
-33.27
-31.03
-27.46
-23.23
-18.93
-15.01
-11.64
-8.83
-6.50
-4.69
-3.60
-3.58
-4.94
-7.77
-11.77
-16.23
-20.22
-22.83
-23.46
-21.95
-18.64
-14.25
-9.75
-6.11
-4.17
-4.34
-6.48
-9.88
-13.49
-16.24
-17.45
-17.07
-15.68
-14.17
-13.31
-13.45
-14.32
-15.29
-15.56
-14.48
-11.59
-6.72
0.05
8.39
17.70
27.16
35.79
42.80
47.63
50.17
50.61
49.36
46.94
43.94
41.03
38.92
38.18
39.03
41.16
43.72
45.55
45.69
43.64
39.65
34.61
29.74
26.09
24.24
24.06
24.83
25.62
25.65
24.65
22.76
20.37
17.76
14.96
11.85
8.44
5.10
2.59
1.84
3.52
7.78
14.14
21.71
29.51
36.74
42.86
47.49
50.26
50.84
48.98
44.83
38.92
32.20
25.71
20.23
16.02
12.77
9.87
6.78
3.27
-0.43
-3.81
-6.26
-7.25
-6.36
-3.32
1.93
9.04
17.02
24.09
28.03
26.73
19.01
5.30
-12.17
-29.83
-43.78
-50.90
-49.82
-41.31
-27.91
-13.13
-0.36
7.99
11.02
9.25
4.04
-3.12
-11.14
-19.50
-27.91
-35.95
-42.82
-47.40
-48.74
-46.59
-41.70
-35.66
-30.41
-27.51
-27.66
-30.58
-35.17
-40.07
-44.08
-46.49
-47.20
-46.61
-45.38
-44.23
-43.69
-44.04
-45.37
-47.59
-50.44
-53.49
-56.02
-57.13
-55.95
-52.00
-45.46
-37.26
-28.85
-21.79
-17.09
-14.99
-14.87
-15.62
-16.10
-15.54
-13.77
-11.16
-8.45
-6.41
-5.54
-5.90
-7.13
-8.67
-9.95
-10.68
-10.73
-10.07
-8.57
-6.10
-2.73
1.05
4.28
5.82
4.89
1.47
-3.57
-8.89
-13.21
-15.86
-16.93
-17.01
-16.73
-16.46
-16.21
-15.85
-15.37
-14.86
-14.49
-14.27
-13.90
-12.89
-10.71
-7.07
-2.04
3.92
10.08
15.62
19.77
21.98
22.00
19.94
16.32
11.89
7.51
3.94
1.59
0.56
0.61
1.38
2.42
3.36
3.98
4.13
3.84
3.18
2.33
1.46
0.69
0.09
-0.32
-0.60
-0.87
-1.41
-2.67
-5.14
-9.14
-14.48
-20.33
-25.24
-27.69
-26.57
-21.67
-13.73
-4.19
5.29
13.29
18.84
21.58
21.63
19.59
16.35
12.94
10.30
8.98
9.03
9.96
11.03
11.46
10.81
9.05
6.51
3.67
0.76
-2.36
-6.13
-10.97
-16.84
-23.02
-28.33
-31.57
-32.11
-30.32
-27.35
-24.75
-23.74
-24.90
-28.08
-32.56
-37.47
-41.90
-45.08
-46.34
-45.17
-41.35
-34.96
-26.45
-16.48
-5.92
4.31
13.33
20.40
25.07
27.37
27.90
27.62
27.58
28.54
30.69
33.70
36.90
39.65
41.58
42.73
43.36
43.82
44.32
44.75
44.70
43.60
40.95
36.54
30.56
23.53
16.11
8.85
1.97
-4.57
-10.93
-17.19
-23.16
-28.38
-32.24
-34.13
-33.63
-30.56
-25.03
-17.38
-8.16
1.96
12.22
21.78
29.89
35.87
39.35
40.35
39.37
37.31
35.25
34.20
34.87
37.54
42.03
47.73
53.78
59.23
63.23
65.30
65.34
63.65
60.76
57.28
53.69
50.27
47.18
44.39
41.88
39.58
37.42
35.31
33.20
31.11
29.18
27.67
26.92
27.30
29.11
32.42
36.92
41.79
45.78
47.29
44.88
37.67
25.76
10.34
-6.61
-22.81
-36.44
-46.46
-52.80
-55.98
-56.79
-55.83
-53.50
-50.04
-45.70
-40.92
-36.35
-32.74
-30.76
-30.85
-32.91
-36.19
-39.44
-41.22
-40.60
-37.63
-33.47
-30.02
-29.04
-31.38
-36.51
-42.77
-48.01
-50.41
-49.09
-44.13
-36.33
-26.70
-16.19
-5.50
4.81
14.29
22.56
29.34
34.56
38.34
40.97
42.80
44.14
45.12
45.69
45.48
43.98
40.65
35.30
28.25
20.47
13.28
7.96
5.25
5.09
6.65
8.69
10.01
9.86
8.03
4.75
0.46
-4.56
-10.23
-16.67
-23.92
-31.82
-39.84
-47.12
-52.70
-55.77
-55.86
-52.95
-47.43
-40.00
-31.48
-22.67
-14.29
-6.78
-0.42
4.69
8.40
10.49
10.58
8.25
3.29
-4.11
-13.17
-22.58
-30.81
-36.52
-38.97
-38.21
-34.99
-30.49
-25.92
-22.22
-19.93
-19.24
-20.12
-22.34
-25.53
-29.26
-33.11
-36.91
-40.82
-45.31
-51.02
-58.28
-66.84
-75.59
-82.65
-85.89
-83.52
-74.81
-60.45
-42.52
-23.84
-7.16
5.63
14.00
18.58
20.80
22.16
23.69
25.73
27.93
29.49
29.50
27.36
22.96
16.90
10.24
4.21
-0.30
-2.99
-4.27
-5.00
-6.04
-7.94
-10.69
-13.87
-16.84
-19.13
-20.52
-21.16
-21.41
-21.76
-22.70
-24.60
-27.60
-31.43
-35.40
-38.45
-39.38
-37.18
-31.41
-22.35
-10.99
1.29
13.05
23.10
30.69
35.44
37.37
36.80
34.34
30.76
26.92
23.63
21.44
20.65
21.23
22.92
25.33
28.00
30.47
32.30
33.30
33.47
33.06
32.41
31.77
31.05
29.88
27.76
24.26
19.28
13.01
5.98
-1.16
-7.64
-12.64
-15.35
-15.15
-11.74
-5.33
3.34
13.24
23.28
32.60
40.65
47.10
51.76
54.41
54.97
53.47
50.32
46.14
41.65
37.42
33.73
30.55
27.72
25.06
22.54
20.20
18.02
15.88
13.51
10.65
7.16
3.11
-1.22
-5.50
-9.50
-13.17
-16.68
-20.33
-24.46
-29.24
-34.47
-39.49
-43.21
-44.44
-42.27
-36.39
-27.26
-16.00
-4.07
7.20
16.82
24.33
29.66
32.99
34.57
34.57
33.11
30.28
26.19
21.07
15.28
9.24
3.40
-1.86
-6.29
-9.77
-12.30
-14.00
-15.13
-16.06
-17.20
-18.81
-20.93
-23.32
-25.54
-27.18
-28.12
-28.59
-29.15
-30.55
-33.40
-37.89
-43.64
-49.56
-54.11
-55.63
-52.86
-45.48
-34.24
-20.77
-7.05
5.20
14.94
21.81
25.93
27.51
26.74
23.84
19.23
13.63
7.96
3.08
-0.47
-2.59
-3.51
-3.59
-3.07
-2.04
-0.45
1.68
4.15
6.59
8.49
9.43
9.15
7.65
5.14
1.93
-1.67
-5.45
-9.32
-13.30
-17.43
-21.65
-25.68
-28.96
-30.71
-30.13
-26.71
-20.45
-11.99
-2.39
7.16
15.68
22.56
27.55
30.68
32.05
31.82
30.22
27.67
24.73
22.02
20.03
18.93
18.57
18.57
18.51
18.10
17.29
16.22
15.12
14.25
13.67
13.29
12.85
11.98
10.36
7.82
4.42
0.36
-4.13
-8.91
-13.89
-18.87
-23.36
-26.52
-27.37
-25.16
-19.75
-11.77
-2.46
6.89
15.26
22.21
27.76
32.17
35.56
37.82
38.67
37.86
35.45
31.84
27.74
23.92
21.02
19.37
18.92
19.34
20.08
20.59
20.40
19.31
17.38
14.82
11.95
9.05
6.26
3.58
0.95
-1.71
-4.40
-7.12
-9.85
-12.60
-15.25
-17.47
-18.63
-17.93
-14.68
-8.62
-0.13
9.82
19.95
29.13
36.62
42.24
46.17
48.79
50.41
51.25
51.34
50.69
49.37
47.48
45.21
42.78
40.33
37.96
35.67
33.47
31.31
29.15
26.83
24.12
20.75
16.56
11.71
6.69
2.14
-1.39
-3.82
-5.57
-7.43
-10.17
-14.10
-18.88
-23.56
-26.93
-27.98
-26.20
-21.74
-15.27
-7.72
0.00
7.23
13.51
18.58
22.22
24.24
24.53
23.19
20.61
17.49
14.61
12.58
11.67
11.74
12.40
13.24
14.02
14.73
15.50
16.36
17.16
17.51
17.01
15.36
12.58
8.92
4.79
0.59
-3.39
-7.04
-10.30
-13.19
-15.83
-18.37
-21.01
-23.87
-26.82
-29.40
-30.90
-30.60
-28.04
-23.20
-16.56
-8.89
-1.01
6.45
13.09
18.68
23.05
26.01
27.34
26.91
24.83
21.53
17.67
13.95
10.92
8.90
7.86
7.63
7.94
8.53
9.18
9.65
9.72
9.14
7.81
5.74
3.15
0.40
-2.15
-4.21
-5.74
-6.85
-7.80
-8.88
-10.30
-12.20
-14.58
-17.34
-20.18
-22.65
-24.14
-24.03
-21.87
-17.58
-11.50
-4.34
3.02
9.75
15.23
19.19
21.57
22.46
22.04
20.48
17.99
14.87
11.52
8.45
6.17
5.05
5.16
6.22
7.73
9.15
10.09
10.43
10.25
9.68
8.78
7.46
5.64
3.32
0.70
-1.87
-4.04
-5.64
-6.74
-7.62
-8.68
-10.20
-12.33
-14.96
-17.75
-20.22
-21.77
-21.91
-20.28
-16.84
-11.84
-5.77
0.75
7.08
12.74
17.38
20.77
22.73
23.12
21.95
19.40
15.88
11.98
8.34
5.47
3.64
2.87
2.95
3.58
4.41
5.14
5.50
5.28
4.38
2.81
0.68
-1.79
-4.36
-6.83
-9.05
-11.01
-12.79
-14.55
-16.49
-18.74
-21.36
-24.25
-27.13
-29.55
-30.92
-30.64
-28.35
-24.03
-18.15
-11.48
-4.93
0.75
5.14
8.17
9.96
10.66
10.38
9.19
7.20
4.62
1.82
-0.76
-2.75
-3.92
-4.25
-3.88
-3.11
-2.27
-1.66
-1.48
-1.80
-2.59
-3.69
-4.97
-6.28
-7.51
-8.68
-9.84
-11.06
-12.44
-13.98
-15.60
-17.09
-18.12
-18.22
-16.95
-14.02
-9.51
-3.84
2.32
8.27
13.46
17.61
20.59
22.36
22.82
21.92
19.69
16.43
12.61
8.83
5.58
3.19
1.76
1.24
1.49
2.24
3.15
3.86
4.01
3.40
2.04
0.10
-2.09
-4.23
-6.11
-7.74
-9.28
-10.98
-13.11
-15.85
-19.17
-22.76
-26.08
-28.40
-29.02
-27.45
-23.66
-18.03
-11.33
-4.47
1.79
7.00
10.99
13.79
15.46
16.01
15.44
13.83
11.43
8.68
6.06
4.00
2.73
2.26
2.38
2.81
3.24
3.44
3.33
2.89
2.18
1.19
-0.10
-1.76
-3.81
-6.19
-8.71
-11.20
-13.54
-15.83
-18.24
-20.93
-23.78
-26.34
-27.91
-27.77
-25.49
-21.10
-15.07
-8.19
-1.25
5.09
10.44
14.58
17.38
18.78
18.77
17.51
15.33
12.69
10.09
7.95
6.48
5.68
5.40
5.45
5.64
5.85
5.97
5.84
5.26
4.05
2.10
-0.46
-3.35
-6.19
-8.66
-10.64
-12.24
-13.74
-15.45
-17.59
-20.21
-23.13
-26.00
-28.31
-29.50
-29.09
-26.84
-22.83
-17.43
-11.20
-4.73
1.47
6.99
11.50
14.73
16.48
16.71
15.63
13.67
11.35
9.21
7.56
6.54
6.10
6.08
6.34
6.77
7.24
7.64
7.87
7.87
7.57
6.94
5.93
4.49
2.62
0.43
-1.88
-4.08
-5.96
-7.46
-8.70
-9.90
-11.30
-13.06
-15.19
-17.53
-19.74
-21.32
-21.69
-20.37
-17.16
-12.23
-6.20
0.16
6.10
11.15
15.13
18.11
20.20
21.38
21.59
20.79
19.07
16.81
14.47
12.56
11.37
10.97
11.16
11.62
12.02
12.15
11.89
11.24
10.19
8.75
6.92
4.72
2.24
-0.38
-3.00
-5.50
-7.81
-9.87
-11.65
-13.15
-14.40
-15.46
-16.45
-17.55
-18.92
-20.70
-22.94
-25.55
-28.25
-30.51
-31.70
-31.21
-28.66
-24.08
-17.92
-11.00
-4.18
1.83
6.63
10.11
12.40
13.69
14.16
14.00
13.35
12.47
11.64
11.13
11.09
11.53
12.26
13.03
13.64
14.00
14.18
14.31
14.44
14.51
14.37
13.88
12.94
11.61
10.02
8.31
6.61
4.93
3.31
1.76
0.32
-1.01
-2.25
-3.48
-4.84
-6.45
-8.44
-10.90
-13.92
-17.49
-21.50
-25.54
-29.01
-31.17
-31.43
-29.52
-25.70
-20.64
-15.15
-9.93
-5.37
-1.58
1.47
3.78
5.26
5.83
5.54
4.65
3.56
2.68
2.27
2.36
2.78
3.31
3.72
3.90
3.78
3.39
2.75
1.88
0.74
-0.70
-2.47
-4.53
-6.83
-9.26
-11.80
-14.49
-17.44
-20.77
-24.46
-28.32
-31.95
-34.89
-36.79
-37.56
-37.47
-36.93
-36.37
-36.03
-35.89
-35.70
-35.13
-33.84
-31.48
-27.71
-22.24
-14.93
-5.95
4.06
14.16
23.29
30.61
35.82
39.09
40.94
41.93
42.46
42.68
42.66
42.46
42.26
42.34
42.92
44.07
45.67
47.43
49.03
50.22
50.82
50.77
50.10
48.86
47.14
45.07
42.71
40.09
37.09
33.61
29.60
25.13
20.39
15.58
10.86
6.23
1.61
-3.13
-8.02
-13.04
-18.10
-23.13
-27.98
-32.49
-36.36
-39.15
-40.45
-39.98
-37.80
-34.28
-30.04
-25.71
-21.75
-18.33
-15.41
-12.98
-11.11
-10.08
-10.15
-11.37
-13.44
-15.75
-17.58
-18.37
-17.94
-16.46
-14.33
-11.94
-9.57
-7.33
-5.21
-3.24
-1.53
-0.26
0.43
0.41
-0.25
-1.38
-2.68
-3.88
-4.72
-5.16
-5.32
-5.44
-5.77
-6.45
-7.44
-8.55
-9.60
-10.52
-11.40
-12.35
-13.43
-14.44
-14.99
-14.62
-13.05
-10.33
-6.80
-3.00
0.56
3.55
5.86
7.46
8.41
8.72
8.46
7.77
6.92
6.21
5.86
5.91
6.28
6.77
7.23
7.60
7.93
8.27
8.63
8.91
8.92
8.45
7.36
5.60
3.25
0.51
-2.33
-4.98
-7.21
-8.98
-10.42
-11.81
-13.40
-15.34
-17.55
-19.78
-21.66
-22.78
-22.80
-21.55
-19.04
-15.48
-11.27
-6.88
-2.77
0.74
3.48
5.40
6.53
6.91
6.61
5.73
4.46
3.01
1.63
0.47
-0.42
-1.01
-1.33
-1.35
-1.07
-0.52
0.21
0.93
1.44
1.55
1.13
0.12
-1.45
-3.46
-5.69
-7.90
-9.85
-11.42
-12.69
-13.90
-15.38
-17.37
-19.91
-22.78
-25.56
-27.70
-28.67
-28.08
-25.75
-21.74
-16.39
-10.23
-3.89
2.01
7.03
10.91
13.56
15.07
15.59
15.36
14.60
13.60
12.60
11.81
11.32
11.14
11.20
11.43
11.80
12.27
12.82
13.31
13.57
13.30
12.24
10.31
7.62
4.56
1.64
-0.69
-2.24
-3.13
-3.82
-4.87
-6.75
-9.67
-13.43
-17.54
-21.28
-23.98
-25.09
-24.36
-21.87
-17.98
-13.28
-8.36
-3.71
0.43
3.93
6.80
8.94
10.22
10.52
9.87
8.58
7.14
6.04
5.59
5.76
6.27
6.80
7.17
7.37
7.54
7.86
8.43
9.32
10.53
12.00
13.60
15.08
16.09
16.30
15.51
13.77
11.32
8.42
5.28
1.95
-1.60
-5.38
-9.16
-12.42
-14.48
-14.67
-12.67
-8.66
-3.35
2.31
7.41
11.43
14.21
15.88
16.53
16.11
14.46
11.51
7.51
3.10
-0.91
-3.83
-5.37
-5.73
-5.41
-4.99
-4.86
-5.10
-5.56
-5.97
-6.12
-5.95
-5.61
-5.34
-5.38
-5.81
-6.55
-7.34
-7.91
-8.11
-8.04
-7.94
-8.09
-8.64
-9.48
-10.32
-10.71
-10.21
-8.49
-5.41
-1.10
3.98
9.11
13.48
16.45
17.79
17.79
17.05
16.18
15.46
14.72
13.50
11.25
7.66
2.80
-3.00
-9.25
-15.49
-21.34
-26.54
-30.86
-34.05
-35.89
-36.31
-35.41
-33.52
-31.11
-28.59
-26.24
-24.16
-22.30
-20.57
-18.98
-17.64
-16.75
-16.44
-16.76
-17.59
-18.74
-19.97
-21.10
-21.97
-22.42
-22.32
-21.45
-19.60
-16.50
-11.94
-5.86
1.61
10.05
18.77
26.95
33.79
38.72
41.51
42.24
41.32
39.31
36.86
34.62
33.11
32.57
32.93
33.74
34.46
34.58
33.94
32.67
31.13
29.58
28.08
26.40
24.33
21.89
19.58
18.26
18.90
22.08
27.65
34.72
41.79
47.32
50.19
49.98
47.02
42.27
37.02
32.75
30.81
32.13
36.92
44.45
53.03
60.50
64.79
64.58
59.71
51.15
40.62
29.98
20.65
13.24
7.52
2.57
-2.82
-9.66
-18.32
-28.27
-38.21
-46.42
-51.40
-52.32
-49.26
-43.11
-35.25
-27.14
-20.06
-14.95
-12.41
-12.66
-15.43
-19.91
-24.78
-28.51
-29.82
-28.25
-24.39
-19.77
-16.29
-15.50
-17.94
-22.95
-28.94
-34.04
-36.84
-36.89
-34.79
-31.89
-29.69
-29.38
-31.47
-35.77
-41.55
-47.83
-53.60
-57.97
-60.27
-60.05
-57.22
-52.13
-45.55
-38.53
-32.16
-27.22
-23.98
-22.18
-21.26
-20.58
-19.71
-18.50
-16.99
-15.31
-13.53
-11.59
