1676918962.00
64.000000
-0.00
-0.00
-0.00
-0.00
-0.00
-0.00
-0.00
-0.00
-0.00
-0.00
0.00
0.01
0.01
-0.00
-0.03
-0.05
-0.05
0.00
0.13
0.36
0.66
1.01
1.37
1.72
2.06
2.40
2.79
3.24
3.80
4.42
5.06
5.66
6.20
6.68
7.15
7.68
8.31
9.14
10.09
11.04
11.88
12.56
13.14
13.76
14.65
15.96
17.91
20.32
22.90
25.38
27.58
29.57
31.68
34.32
37.81
42.54
48.15
54.10
59.83
64.97
69.58
74.14
79.34
85.71
93.76
103.00
112.62
121.73
129.77
136.75
143.30
150.75
157.77
166.64
177.95
191.79
206.97
220.57
228.25
225.36
208.53
176.87
132.76
80.05
23.07
-34.94
-92.44
-149.16
-205.23
-260.37
-313.74
-363.87
-409.83
-450.91
-486.50
-515.74
-537.23
-549.22
-549.96
-538.37
-514.21
-478.67
-433.88
-382.45
-327.02
-269.84
-212.63
-156.66
-102.95
-52.37
-5.90
35.58
71.43
101.35
125.50
144.38
158.69
169.15
176.37
180.75
182.57
182.07
179.51
175.23
169.65
163.18
156.15
148.81
141.30
133.69
126.02
118.33
110.69
103.16
95.80
88.68
81.83
75.25
68.95
62.95
57.25
51.86
46.78
42.03
37.59
33.45
29.61
26.07
22.81
19.83
17.11
14.67
12.48
10.54
8.83
7.35
6.07
4.97
4.05
3.27
2.62
2.09
1.65
1.30
1.01
0.79
0.61
0.47
0.37
0.29
0.23
0.18
0.16
0.14
0.13
0.14
0.15
0.17
0.20
0.23
0.26
0.30
0.34
0.39
0.43
0.48
0.53
0.57
0.63
0.68
0.74
0.80
0.87
0.94
1.03
1.12
1.22
1.33
1.46
1.60
1.76
1.94
2.14
2.36
2.60
2.87
3.17
3.50
3.86
4.25
4.68
5.14
5.64
6.18
6.76
7.38
8.04
8.74
9.49
10.29
11.13
12.01
12.94
13.92
14.96
16.06
17.23
18.45
19.72
20.99
22.21
23.30
24.16
24.68
24.73
24.19
22.99
21.07
18.42
15.11
11.22
6.93
2.42
-2.09
-6.37
-10.25
-13.54
-16.15
-17.99
-19.07
-19.42
-19.12
-18.29
-17.03
-15.47
-13.73
-11.93
-10.14
-8.39
-6.66
-4.98
-3.31
-1.62
0.08
1.82
3.57
5.33
7.12
9.04
11.04
13.14
15.35
17.68
20.07
22.48
24.88
27.33
30.03
32.89
35.98
39.35
42.97
46.72
50.42
53.94
57.32
60.88
64.55
68.48
72.80
77.42
82.03
86.20
89.56
92.04
94.04
95.56
96.88
98.09
98.86
98.26
94.92
87.21
73.24
56.11
37.22
17.81
-1.28
-19.83
-38.15
-56.92
-76.93
-98.87
-123.08
-150.00
-178.74
-206.99
-231.22
-247.60
-253.37
-247.98
-233.38
-213.17
-191.77
-172.19
-155.52
-141.27
-128.47
-116.65
-106.18
-97.85
-92.16
-89.13
-87.69
-86.28
-83.40
-78.13
-70.33
-60.42
-49.05
-36.77
-24.11
-11.34
1.28
13.38
24.46
33.99
41.56
47.10
50.83
53.20
54.81
56.16
57.58
59.12
60.59
61.69
62.14
61.82
60.84
59.45
57.93
56.46
55.07
53.59
51.75
49.22
45.70
40.99
35.01
27.95
20.28
12.86
6.68
2.61
0.92
0.83
0.60
-2.06
-9.10
-21.26
-37.63
-55.95
-73.49
-88.09
-98.91
-106.60
-112.79
-119.29
-127.35
-137.09
-147.32
-155.63
-158.91
-154.10
-139.13
-113.76
-80.10
-42.44
-6.42
22.37
40.05
45.47
40.61
29.89
18.87
12.75
15.19
27.72
49.80
79.32
113.02
146.97
176.94
199.01
210.39
210.26
200.21
183.83
165.66
149.75
138.53
132.30
129.60
128.12
125.62
120.66
112.67
101.77
88.39
72.98
55.93
37.58
18.35
-1.22
-20.48
-38.79
-55.77
-71.22
-85.09
-97.22
-107.16
-114.07
-116.94
-115.05
-108.33
-97.62
-84.58
-71.26
-59.57
-50.75
-45.05
-41.74
-39.41
-36.46
-31.57
-24.00
-13.68
-1.04
13.16
28.02
42.50
55.48
65.76
72.25
74.33
72.06
66.33
58.60
50.47
43.24
37.63
33.80
31.62
31.03
32.11
34.98
39.47
44.88
50.08
53.84
55.23
53.93
50.18
44.53
37.72
30.57
24.04
19.15
16.76
17.10
19.54
22.62
24.54
23.88
20.14
13.84
6.14
-1.67
-8.63
-14.36
-18.86
-22.40
-25.34
-28.05
-30.96
-34.55
-39.21
-45.07
-51.78
-58.46
-63.96
-67.09
-67.12
-64.01
-58.43
-51.56
-44.69
-38.82
-34.43
-31.35
-28.93
-26.24
-22.39
-16.83
-9.50
-0.91
8.00
16.22
23.03
28.18
31.97
34.96
37.62
40.14
42.35
43.83
44.21
43.32
41.25
38.24
34.57
30.41
25.83
20.84
15.48
9.90
4.36
-0.82
-5.37
-9.09
-11.89
-13.91
-15.40
-16.76
-18.38
-20.50
-23.13
-26.05
-28.84
-31.15
-32.82
-33.98
-35.04
-36.53
-38.96
-42.57
-47.22
-52.28
-56.74
-59.34
-58.97
-55.02
-47.59
-37.54
-26.24
-15.12
-5.23
2.95
9.52
14.91
19.48
23.38
26.46
28.47
29.30
29.11
28.31
27.42
26.89
26.97
27.79
29.39
31.69
34.55
37.57
40.15
41.64
41.54
39.67
36.21
31.62
26.33
20.74
15.06
9.49
4.25
-0.48
-4.58
-8.15
-11.55
-15.23
-19.54
-24.52
-29.88
-35.08
-39.59
-43.13
-45.78
-47.94
-50.13
-52.82
-56.22
-60.28
-64.66
-68.81
-72.06
-73.65
-72.94
-69.59
-63.64
-55.53
-46.05
-36.05
-26.28
-17.18
-8.95
-1.66
4.61
9.69
13.43
15.78
16.98
17.49
17.88
18.64
20.02
22.02
24.46
27.16
30.01
33.01
36.13
39.18
41.78
43.49
43.92
42.97
40.85
38.01
34.91
31.88
29.04
26.31
23.56
20.69
17.60
14.25
10.59
6.61
2.38
-1.98
-6.28
-10.44
-14.58
-19.04
-24.21
-30.37
-37.40
-44.72
-51.37
-56.22
-58.34
-57.29
-53.21
-46.71
-38.63
-29.80
-20.85
-12.21
-4.18
2.97
9.01
13.76
17.22
19.51
20.89
21.59
21.82
21.73
21.48
21.28
21.35
21.82
22.63
23.61
24.48
25.04
25.19
24.91
24.11
22.69
20.46
17.25
13.07
8.13
2.78
-2.60
-7.72
-12.50
-17.00
-21.43
-26.07
-31.19
-37.00
-43.58
-50.82
-58.43
-65.97
-73.08
-79.59
-85.70
-92.01
-99.34
-108.39
-119.49
-132.41
-146.39
-160.30
-172.88
-182.97
-189.53
-191.72
-188.89
-180.53
-166.33
-146.22
-120.48
-89.90
-55.87
-20.39
14.12
45.08
70.10
87.40
96.14
96.82
91.56
83.99
78.69
80.13
91.38
113.11
143.43
178.48
213.70
245.07
269.85
286.76
295.72
297.40
293.06
284.31
272.98
260.75
248.74
237.33
226.15
214.45
201.65
187.68
173.21
159.37
147.37
137.94
131.00
125.75
121.08
116.11
110.55
104.76
99.26
94.30
89.59
84.38
77.83
69.40
58.89
46.15
30.70
11.60
-12.30
-41.64
-75.85
-112.67
-148.46
-178.99
-200.63
-211.39
-211.47
-202.95
-188.92
-172.43
-155.63
-139.47
-124.03
-109.11
-94.74
-81.32
-69.49
-59.77
-52.30
-46.81
-42.84
-40.01
-38.18
-37.52
-38.23
-40.40
-43.73
-47.55
-51.10
-53.71
-55.11
-55.45
-55.12
-54.57
-54.09
-53.74
-53.45
-53.12
-52.81
-52.72
-53.22
-54.70
-57.45
-61.55
-66.73
-72.35
-77.49
-81.06
-82.10
-80.01
-74.74
-66.78
-57.10
-46.83
-36.94
-28.05
-20.37
-13.82
-8.22
-3.51
0.20
2.70
3.84
3.72
2.70
1.40
0.41
0.15
0.74
1.97
3.46
4.81
5.79
6.33
6.51
6.35
5.70
4.31
1.87
-1.67
-6.05
-10.73
-15.07
-18.63
-21.39
-23.66
-25.93
-28.49
-31.29
-33.91
-35.80
-36.58
-36.30
-35.39
-34.49
-34.29
-35.21
-37.43
-40.83
-45.01
-49.32
-52.86
-54.62
-53.70
-49.61
-42.45
-32.94
-22.18
-11.26
-0.96
8.37
16.77
24.35
31.13
36.92
41.44
44.54
46.34
47.26
47.85
48.54
49.55
50.82
52.14
53.29
54.14
54.71
55.04
55.12
54.84
54.05
52.59
50.38
47.49
44.12
40.49
36.82
33.28
29.87
26.47
22.86
18.82
14.19
9.00
3.52
-1.80
-6.39
-9.86
-12.12
-13.48
-14.61
-16.30
-19.14
-23.33
-28.56
-34.09
-38.93
-42.11
-42.90
-40.99
-36.53
-30.09
-22.47
-14.48
-6.79
0.19
6.34
11.61
16.00
19.49
22.02
23.57
24.26
24.37
24.24
24.21
24.49
25.09
25.89
26.71
27.40
27.96
28.46
29.00
29.57
30.02
30.07
29.45
28.01
25.81
23.07
20.07
17.07
14.25
11.62
9.12
6.57
3.80
0.72
-2.68
-6.29
-9.98
-13.62
-17.16
-20.67
-24.31
-28.30
-32.84
-38.05
-43.89
-50.12
-56.21
-61.44
-64.97
-66.08
-64.38
-59.93
-53.32
-45.42
-37.27
-29.78
-23.63
-19.06
-16.03
-14.22
-13.19
-12.54
-11.95
-11.28
-10.52
-9.78
-9.22
-8.92
-8.89
-8.88
-8.32
-6.38
-2.09
5.34
16.19
29.99
45.59
61.47
76.05
88.14
97.01
102.44
104.47
103.26
99.03
92.11
83.07
72.76
62.22
52.40
44.00
37.18
31.67
26.93
22.36
17.50
12.08
5.98
-0.89
-8.63
-17.27
-26.69
-36.47
-45.80
-53.65
-58.94
-60.92
-59.43
-54.93
-48.40
-40.95
-33.54
-26.75
-20.82
-15.76
-11.56
-8.21
-5.70
-3.95
-2.77
-1.89
-1.05
-0.02
1.35
3.18
5.62
8.77
12.70
17.32
22.39
27.53
32.32
36.39
39.50
41.58
42.60
42.63
41.70
39.90
37.36
34.36
31.21
28.19
25.43
22.84
20.19
17.25
13.92
10.25
6.41
2.49
-1.52
-5.77
-10.41
-15.53
-21.09
-26.95
-32.93
-38.73
-43.98
-48.11
-50.50
-50.59
-48.11
-43.21
-36.42
-28.56
-20.45
-12.78
-5.97
-0.18
4.65
8.60
11.78
14.18
15.79
16.61
16.76
16.53
16.26
16.26
16.72
17.63
18.86
20.25
21.66
23.05
24.33
25.41
26.14
26.37
25.94
24.80
22.97
20.55
17.68
14.56
11.43
8.43
5.66
3.09
0.63
-1.85
-4.41
-7.03
-9.65
-12.22
-14.73
-17.26
-19.88
-22.69
-25.79
-29.32
-33.41
-38.09
-43.11
-47.84
-51.32
-52.57
-50.92
-46.33
-39.36
-31.02
-22.30
-13.97
-6.44
0.17
5.78
10.30
13.63
15.70
16.61
16.55
15.85
14.90
14.07
13.65
13.83
14.65
15.99
17.67
19.52
21.43
23.32
25.09
26.53
27.30
27.12
25.79
23.43
20.38
17.14
14.13
11.58
9.50
7.73
6.02
4.19
2.14
-0.17
-2.70
-5.38
-8.09
-10.73
-13.24
-15.69
-18.26
-21.22
-24.85
-29.27
-34.39
-39.91
-45.29
-49.89
-52.97
-53.87
-52.13
-47.62
-40.67
-31.97
-22.44
-12.95
-4.15
3.69
10.55
16.52
21.68
25.92
29.07
30.92
31.45
30.89
29.70
28.49
27.78
27.84
28.62
29.81
31.03
31.94
32.44
32.58
32.54
32.39
32.10
31.52
30.46
28.81
26.54
23.80
20.76
17.64
14.57
11.58
8.66
5.74
2.78
-0.19
-3.07
-5.79
-8.36
-10.88
-13.55
-16.60
-20.20
-24.46
-29.39
-34.87
-40.59
-45.99
-50.28
-52.58
-52.13
-48.56
-42.04
-33.28
-23.35
-13.40
-4.37
3.17
9.01
13.23
16.06
17.73
18.42
18.27
17.44
16.21
14.94
13.98
13.59
13.85
14.63
15.70
16.78
17.70
18.35
18.65
18.53
17.83
16.38
14.04
10.82
6.92
2.68
-1.51
-5.35
-8.72
-11.77
-14.76
-18.01
-21.63
-25.52
-29.41
-33.02
-36.26
-39.31
-42.60
-46.65
-51.79
-57.99
-64.77
-71.30
-76.59
-79.70
-79.98
-77.20
-71.53
-63.48
-53.80
-43.31
-32.77
-22.73
-13.58
-5.50
1.38
6.98
11.23
14.14
15.88
16.81
17.43
18.19
19.41
21.13
23.21
25.41
27.53
29.39
30.86
31.80
32.06
31.51
30.13
28.03
25.35
22.29
18.95
15.44
11.83
8.26
4.87
1.73
-1.22
-4.22
-7.60
-11.69
-16.69
-22.67
-29.43
-36.51
-43.24
-48.68
-51.91
-52.19
-49.20
-43.24
-35.13
-26.02
-16.94
-8.63
-1.33
4.96
10.39
14.95
18.49
20.80
21.84
21.80
21.12
20.38
20.00
20.21
21.00
22.20
23.63
25.21
26.89
28.64
30.37
31.88
32.93
33.29
32.80
31.44
29.33
26.67
23.74
20.80
18.02
15.50
13.21
10.97
8.52
5.51
1.64
-3.36
-9.52
-16.62
-24.11
-31.15
-36.74
-39.87
-39.85
-36.43
-29.95
-21.21
-11.29
-1.26
8.04
16.16
23.03
28.77
33.59
37.58
40.69
42.77
43.73
43.62
42.70
41.40
40.17
39.32
38.94
38.91
38.95
38.80
38.29
37.32
35.87
33.94
31.45
28.31
24.47
20.03
15.25
10.55
6.30
2.73
-0.24
-2.96
-5.92
-9.45
-13.63
-18.18
-22.66
-26.64
-29.98
-32.88
-35.84
-39.42
-44.05
-49.74
-55.98
-61.84
-66.16
-67.87
-66.31
-61.39
-53.57
-43.67
-32.64
-21.31
-10.31
-0.02
9.33
17.59
24.66
30.47
35.00
38.30
40.54
41.92
42.73
43.25
43.69
44.19
44.76
45.34
45.85
46.27
46.56
46.73
46.71
46.33
45.37
43.66
41.09
37.74
33.81
29.59
25.35
21.30
17.55
14.10
10.84
7.60
4.16
0.42
-3.65
-7.87
-12.00
-15.84
-19.35
-22.74
-26.32
-30.40
-35.17
-40.64
-46.59
-52.62
-58.14
-62.40
-64.56
-63.90
-60.04
-53.06
-43.54
-32.35
-20.39
-8.37
3.27
14.27
24.37
33.26
40.61
46.14
49.73
51.51
51.77
50.94
49.45
47.71
46.05
44.70
43.73
43.13
42.76
42.47
42.09
41.45
40.37
38.68
36.25
33.06
29.23
24.98
20.57
16.23
12.05
8.00
4.03
0.03
-4.05
-8.25
-12.57
-16.91
-21.09
-24.92
-28.24
-30.98
-33.29
-35.43
-37.73
-40.45
-43.69
-47.36
-51.13
-54.46
-56.62
-56.79
-54.29
-48.74
-40.29
-29.60
-17.66
-5.59
5.70
15.64
23.99
30.75
36.01
39.90
42.50
43.89
44.25
43.76
42.70
41.33
39.84
38.38
37.02
35.79
34.68
33.68
32.72
31.58
29.99
27.58
24.07
19.33
13.54
7.12
0.60
-5.56
-11.14
-16.10
-20.61
-24.79
-28.71
-32.33
-35.56
-38.37
-40.79
-42.96
-45.05
-47.18
-49.47
-52.07
-55.16
-58.83
-62.95
-67.01
-70.17
-71.35
-69.63
-64.58
-56.40
-45.94
-34.42
-23.04
-12.67
-3.73
3.74
9.88
14.76
18.30
20.39
21.03
20.47
19.18
17.71
16.50
15.70
15.27
15.06
14.99
15.09
15.49
16.26
17.33
18.53
19.56
20.18
20.23
19.67
18.51
16.81
14.66
12.17
9.52
6.94
4.58
2.52
0.62
-1.44
-4.07
-7.67
-12.46
-18.31
-24.71
-30.82
-35.59
-38.10
-37.74
-34.42
-28.62
-21.18
-13.07
-5.13
2.14
8.50
13.90
18.37
21.87
24.41
26.02
26.80
26.98
26.79
26.45
26.09
25.80
25.58
25.37
25.02
24.40
23.40
22.04
20.44
18.80
17.29
16.03
14.99
14.05
13.04
11.74
9.97
7.64
4.75
1.44
-2.09
-5.66
-9.15
-12.57
-15.99
-19.57
-23.49
-27.94
-33.00
-38.54
-44.10
-48.86
-51.82
-52.08
-49.22
-43.45
-35.53
-26.53
-17.44
-9.02
-1.70
4.34
9.01
12.30
14.25
15.04
14.91
14.25
13.41
12.72
12.41
12.56
13.15
14.00
14.90
15.64
16.20
16.64
17.13
17.72
18.27
18.40
17.71
15.94
13.14
9.68
6.09
2.81
-0.02
-2.50
-4.89
-7.37
-9.98
-12.59
-15.02
-17.19
-19.11
-20.89
-22.78
-25.04
-28.03
-32.03
-37.11
-42.96
-48.80
-53.52
-55.99
-55.38
-51.44
-44.63
-35.90
-26.38
-17.08
-8.66
-1.34
4.87
10.11
14.38
17.65
19.81
20.88
21.05
20.69
20.17
19.82
19.81
20.17
20.82
21.68
22.64
23.62
24.53
25.31
25.85
26.04
25.77
24.91
23.44
21.43
19.04
16.48
13.89
11.32
8.68
5.85
2.74
-0.61
-4.11
-7.60
-10.95
-14.02
-16.79
-19.30
-21.68
-24.22
-27.27
-31.11
-35.76
-40.87
-45.68
-49.23
-50.60
-49.25
-45.16
-38.76
-30.81
-22.11
-13.33
-5.00
2.55
9.06
14.30
18.09
20.33
21.06
20.55
19.28
17.82
16.72
16.31
16.58
17.26
18.00
18.48
18.64
18.54
18.30
17.95
17.41
16.49
15.15
13.47
11.71
10.23
9.29
9.00
9.29
9.92
10.56
10.89
10.65
9.70
8.15
6.17
4.08
2.11
0.35
-1.27
-3.05
-5.43
-8.83
-13.56
-19.60
-26.47
-33.30
-38.96
-42.41
-43.01
-40.70
-36.00
-29.77
-22.89
-16.05
-9.66
-3.95
0.95
4.91
7.92
10.09
11.71
13.15
14.75
16.67
18.83
21.03
23.04
24.67
25.87
26.70
27.29
27.81
28.41
29.10
29.77
30.16
30.04
29.27
27.89
26.03
23.78
20.99
17.36
12.56
6.49
-0.50
-7.78
-14.58
-20.29
-24.66
-27.77
-29.91
-31.50
-33.00
-34.85
-37.43
-40.86
-44.85
-48.65
-51.21
-51.46
-48.73
-43.05
-35.09
-25.99
-16.93
-8.79
-2.03
3.32
7.43
10.49
12.51
13.52
13.55
12.86
11.87
11.15
11.16
12.15
14.03
16.46
18.95
21.06
22.54
23.35
23.64
23.62
23.41
22.98
22.14
20.68
18.52
15.76
12.66
9.52
6.58
3.87
1.35
-1.10
-3.58
-6.30
-9.57
-13.73
-19.07
-25.48
-32.43
-38.91
-43.73
-45.86
-44.75
-40.46
-33.60
-25.08
-15.89
-6.90
1.26
8.15
13.54
17.27
19.32
19.79
18.91
17.10
14.90
12.86
11.40
10.73
10.75
11.20
11.69
11.88
11.54
10.60
9.12
7.22
5.04
2.68
0.20
-2.36
-5.01
-7.78
-10.68
-13.71
-16.76
-19.69
-22.36
-24.72
-26.85
-28.89
-31.03
-33.35
-35.94
-38.80
-41.94
-45.25
-48.35
-50.59
-51.09
-49.02
-43.99
-36.25
-26.70
-16.55
-6.89
1.60
8.81
14.95
20.31
24.95
28.68
31.14
32.10
31.64
30.24
28.63
27.48
27.16
27.58
28.31
28.79
28.60
27.58
25.82
23.57
21.11
18.70
16.47
14.49
12.71
10.98
9.07
6.80
4.13
1.13
-2.00
-5.08
-8.06
-11.04
-14.23
-17.84
-21.95
-26.54
-31.36
-36.07
-40.19
-43.21
-44.61
-43.96
-40.97
-35.66
-28.28
-19.37
-9.67
0.10
9.28
17.39
24.11
29.23
32.60
34.25
34.40
33.55
32.45
31.90
32.44
34.15
36.53
38.71
39.82
39.37
37.46
34.74
32.10
30.29
29.63
29.96
30.74
31.32
31.25
30.26
28.34
25.61
22.18
18.19
13.72
8.92
3.95
-1.00
-5.74
-10.22
-14.54
-18.97
-23.77
-28.98
-34.20
-38.58
-41.01
-40.54
-36.82
-30.21
-21.78
-12.78
-4.25
3.32
9.96
15.91
21.23
25.67
28.77
30.21
30.13
29.10
27.96
27.35
27.48
28.14
28.91
29.43
29.61
29.57
29.42
29.19
28.71
27.75
26.05
23.49
20.07
15.88
11.11
5.92
0.54
-4.89
-10.26
-15.48
-20.41
-24.91
-28.79
-31.98
-34.65
-37.14
-39.88
-43.13
-46.72
-50.02
-52.07
-51.95
-49.12
-43.63
-36.05
-27.23
-17.99
-8.92
-0.33
7.58
14.55
20.24
24.21
26.14
26.05
24.36
21.81
19.24
17.36
16.53
16.68
17.45
18.33
18.89
18.90
18.31
17.27
15.91
14.33
12.54
10.40
7.77
4.57
0.84
-3.22
-7.29
-11.10
-14.49
-17.49
-20.32
-23.25
-26.55
-30.39
-34.88
-39.96
-45.40
-50.69
-55.10
-57.71
-57.75
-54.84
-49.18
-41.48
-32.72
-23.83
-15.39
-7.55
-0.26
6.58
12.89
18.34
22.51
25.14
26.27
26.30
25.84
25.47
25.60
26.30
27.45
28.86
30.34
31.76
33.03
33.98
34.37
33.94
32.56
30.29
27.41
24.31
21.35
18.67
16.14
13.45
10.25
6.36
1.89
-2.82
-7.28
-11.13
-14.30
-17.03
-19.82
-23.19
-27.49
-32.73
-38.48
-44.00
-48.29
-50.46
-49.84
-46.24
-39.98
-31.76
-22.45
-12.87
-3.63
4.90
12.51
19.08
24.44
28.49
31.20
32.73
33.37
33.49
33.44
33.42
33.47
33.44
33.14
32.45
31.34
29.93
28.38
26.82
25.24
23.50
21.34
18.58
15.23
11.50
7.73
4.29
1.43
-0.83
-2.62
-4.16
-5.60
-6.98
-8.19
-9.04
-9.36
-9.20
-8.87
-8.96
-10.20
-13.17
-18.14
-24.74
-32.13
-39.07
-44.32
-46.92
-46.46
-43.09
-37.39
-30.17
-22.21
-14.15
-6.38
0.89
7.62
13.80
19.40
24.31
28.38
31.50
33.67
34.99
35.71
36.02
36.08
35.95
35.74
35.70
36.22
37.65
40.08
43.13
45.98
47.65
47.44
45.15
41.18
36.26
31.13
26.26
21.79
17.61
13.60
9.62
5.68
1.79
-1.98
-5.56
-8.87
-11.86
-14.52
-16.94
-19.36
-22.15
-25.74
-30.41
-36.20
-42.76
-49.32
-54.85
-58.28
-58.80
-56.10
-50.51
-42.85
-34.19
-25.55
-17.63
-10.72
-4.81
0.27
4.62
8.20
10.86
12.46
13.03
12.82
12.23
11.71
11.64
12.19
13.33
14.93
16.74
18.57
20.22
21.56
22.45
22.72
22.29
21.08
19.17
16.75
14.13
11.59
9.30
7.19
5.02
2.50
-0.59
-4.18
-8.01
-11.73
-15.09
-18.06
-20.82
-23.72
-27.11
-31.25
-36.17
-41.65
-47.16
-51.90
-55.03
-55.76
-53.75
-49.11
-42.43
-34.63
-26.55
-18.87
-11.91
-5.70
-0.15
4.77
8.94
12.10
13.98
14.56
14.11
13.18
12.37
12.09
12.35
12.87
13.28
13.42
13.40
13.53
14.05
14.91
15.75
16.06
15.48
13.99
11.78
9.22
6.59
4.02
1.57
-0.68
-2.63
-4.08
-4.91
-5.12
-4.80
-4.12
-3.28
-2.48
-2.02
-2.19
-3.34
-5.70
-9.39
-14.34
-20.32
-26.87
-33.35
-38.91
-42.67
-43.90
-42.22
-37.79
-31.19
-23.25
-14.76
-6.35
1.58
8.80
15.07
20.07
23.44
24.87
24.25
21.83
18.28
14.52
11.51
9.90
9.84
11.02
12.89
14.95
17.05
19.31
21.93
24.96
28.11
30.86
32.58
32.79
31.24
27.89
22.93
16.69
9.73
2.75
-3.48
-8.35
-11.59
-13.33
-13.96
-13.95
-13.61
-13.09
-12.48
-11.98
-12.07
-13.34
-16.31
-21.15
-27.57
-34.84
-41.95
-47.82
-51.51
-52.39
-50.28
-45.48
-38.64
-30.62
-22.20
-13.98
-6.30
0.65
6.74
11.82
15.78
18.59
20.40
21.48
22.11
22.55
22.95
23.36
23.79
24.25
24.70
25.15
25.57
26.00
26.50
27.09
27.68
28.04
27.88
26.92
25.10
22.61
19.85
17.25
15.00
13.04
11.01
8.52
5.33
1.47
-2.73
-6.86
-10.51
-13.50
-15.92
-18.11
-20.61
-23.91
-28.40
-34.09
-40.62
-47.19
-52.78
-56.31
-57.02
-54.64
-49.54
-42.61
-34.94
-27.54
-20.97
-15.37
-10.59
-6.43
-2.84
0.10
2.29
3.81
4.93
6.08
7.61
9.70
12.28
15.15
18.08
20.90
23.46
25.58
27.08
27.76
27.51
26.38
24.58
22.38
20.05
17.76
15.52
13.25
10.78
7.92
4.57
0.74
-3.44
-7.66
-11.61
-15.06
-17.94
-20.43
-22.90
-25.80
-29.61
-34.52
-40.41
-46.66
-52.32
-56.25
-57.47
-55.50
-50.44
-43.02
-34.25
-25.18
-16.63
-9.07
-2.63
2.77
7.23
10.85
13.61
15.45
16.38
16.58
16.41
16.33
16.73
17.76
19.28
20.90
22.27
23.20
23.75
24.12
24.44
24.65
24.48
23.64
21.99
19.70
17.16
14.75
12.75
11.14
9.74
8.29
6.61
4.68
2.56
0.34
-1.97
-4.47
-7.40
-11.07
-15.84
-21.98
-29.58
-38.49
-48.20
-57.81
-66.16
-72.01
-74.37
-72.75
-67.31
-58.78
-48.23
-36.79
-25.34
-14.43
-4.37
4.67
12.53
18.98
23.88
27.23
29.30
30.55
31.49
32.50
33.69
34.95
36.07
36.97
37.74
38.60
39.75
41.13
42.36
42.86
42.13
39.90
36.34
31.94
27.27
22.80
18.77
15.16
11.79
8.49
5.18
1.90
-1.29
-4.35
-7.33
-10.33
-13.45
-16.84
-20.61
-24.90
-29.90
-35.65
-42.01
-48.45
-54.08
-57.83
-58.74
-56.25
-50.40
-41.80
-31.40
-20.19
-8.99
1.73
11.70
20.72
28.57
34.94
39.53
42.21
43.13
42.75
41.76
40.83
40.43
40.68
41.42
42.33
43.17
43.87
44.51
45.18
45.83
46.19
45.83
44.42
41.86
38.34
34.31
30.24
26.38
22.77
19.17
15.27
10.93
6.23
1.47
-2.98
-6.88
-10.27
-13.47
-16.98
-21.31
-26.83
-33.63
-41.48
-49.78
-57.65
-64.05
-67.99
-68.70
-65.88
-59.76
-51.01
-40.62
-29.64
-18.94
-9.10
-0.43
7.01
13.20
18.08
21.53
23.43
23.86
23.09
21.68
20.24
19.30
19.08
19.57
20.54
21.72
22.92
24.01
24.90
25.43
25.44
24.79
23.43
21.45
19.02
16.35
13.55
10.66
7.67
4.62
1.57
-1.27
-3.75
-5.79
-7.48
-9.07
-10.92
-13.49
-17.15
-22.13
-28.33
-35.27
-42.05
-47.53
-50.58
-50.41
-46.77
-40.01
-30.90
-20.40
-9.44
1.27
11.16
19.85
27.05
32.55
36.31
38.46
39.29
39.20
38.66
38.04
37.63
37.55
37.78
38.17
38.52
38.65
38.44
37.84
36.77
35.14
32.79
29.65
25.74
21.28
16.65
12.24
8.36
5.06
2.16
-0.69
-3.86
-7.59
-11.91
-16.63
-21.41
-25.96
-30.08
-33.81
-37.39
-41.16
-45.51
-50.68
-56.62
-62.95
-68.84
-73.22
-74.99
-73.37
-68.16
-59.87
-49.48
-38.19
-27.03
-16.58
-7.00
1.82
10.00
17.49
24.01
29.20
32.85
35.00
36.04
36.52
37.00
37.82
39.02
40.45
41.90
43.32
44.77
46.40
48.22
49.98
51.18
51.20
49.58
46.27
41.61
36.25
30.83
25.75
21.08
16.58
11.97
7.06
1.91
-3.22
-8.01
-12.25
-15.91
-19.16
-22.37
-25.94
-30.31
-35.77
-42.36
-49.72
-57.10
-63.40
-67.45
-68.27
-65.40
-59.05
-50.01
-39.39
-28.28
-17.46
-7.37
1.87
10.21
17.57
23.78
28.69
32.20
34.39
35.52
35.89
35.83
35.58
35.30
35.07
34.97
35.06
35.40
35.97
36.60
36.97
36.65
35.16
32.25
28.05
23.22
18.78
15.81
15.03
16.41
19.13
21.93
23.58
23.40
21.42
18.25
14.61
11.00
7.43
3.55
-1.07
-6.73
-13.44
-20.92
-28.76
-36.41
-43.23
-48.49
-51.43
-51.46
-48.31
-42.21
-33.85
-24.18
-14.20
-4.74
3.69
10.85
16.67
21.17
24.43
26.52
27.55
27.68
27.12
26.13
24.98
23.92
23.13
22.76
22.82
23.28
23.95
24.55
24.72
24.10
22.48
19.86
16.52
12.92
9.58
6.82
4.69
2.92
1.08
-1.23
-4.21
-7.74
-11.48
-14.99
-17.97
-20.39
-22.55
-24.98
-28.27
-32.83
-38.74
-45.61
-52.63
-58.75
-62.86
-64.07
-61.95
-56.60
-48.62
-38.95
-28.63
-18.53
-9.29
-1.25
5.43
10.70
14.60
17.23
18.87
19.95
20.92
22.12
23.65
25.33
26.85
27.97
28.65
29.05
29.38
29.77
30.05
29.86
28.78
26.58
23.31
19.35
15.19
11.26
7.71
4.40
1.04
-2.70
-6.93
-11.57
-16.41
-21.14
-25.58
-29.58
-33.11
-36.22
-39.11
-42.06
-45.47
-49.62
-54.57
-59.91
-64.88
-68.43
-69.63
-67.90
-63.22
-56.04
-47.19
-37.57
-27.97
-18.94
-10.75
-3.45
3.00
8.69
13.62
17.78
21.19
24.01
26.52
29.05
31.82
34.81
37.73
40.13
41.60
42.00
41.51
40.46
39.17
37.77
36.15
34.14
31.60
28.63
25.44
22.29
19.30
16.40
13.42
10.13
6.42
2.33
-1.94
-6.13
-9.99
-13.38
-16.36
-19.14
-22.10
-25.67
-30.17
-35.64
-41.74
-47.73
-52.67
-55.58
-55.84
-53.31
-48.38
-41.75
-34.25
-26.57
-19.10
-11.99
-5.26
1.06
6.79
11.62
15.31
17.67
18.80
18.98
18.65
18.23
18.06
18.28
18.89
19.82
20.94
22.17
23.38
24.42
25.09
25.18
24.55
23.20
21.32
19.24
17.24
15.49
13.90
12.18
10.04
7.32
4.12
0.72
-2.54
-5.46
-8.03
-10.42
-12.92
-15.80
-19.37
-23.83
-29.16
-35.00
-40.57
-44.76
-46.43
-44.85
-39.97
-32.46
-23.45
-14.14
-5.35
2.53
9.48
15.60
20.85
25.07
27.99
29.53
29.82
29.25
28.27
27.27
26.44
25.83
25.33
24.85
24.30
23.61
22.71
21.54
20.05
18.28
16.26
14.03
11.55
8.69
5.35
1.50
-2.73
-7.06
-11.19
-14.90
-18.17
-21.10
-23.96
-27.05
-30.61
-34.81
-39.66
-44.97
-50.38
-55.34
-59.14
-61.05
-60.48
-57.06
-50.89
-42.40
-32.39
-21.79
-11.40
-1.79
6.80
14.35
20.85
26.25
30.39
33.10
34.39
34.51
33.91
33.08
32.38
31.93
31.61
31.28
30.84
30.29
29.74
29.25
28.78
28.11
26.91
24.85
21.72
17.51
12.48
7.05
1.74
-3.01
-6.98
-10.24
-13.05
-15.82
-18.98
-22.87
-27.71
-33.55
-40.16
-47.01
-53.21
-57.73
-59.60
-58.28
-53.83
-46.97
-38.80
-30.49
-22.84
-16.14
-10.25
-4.84
0.34
5.24
9.61
13.15
15.72
17.48
18.76
19.98
21.38
23.03
24.78
26.46
27.90
29.01
29.78
30.14
29.96
29.09
27.40
24.84
21.45
17.37
12.78
7.93
3.10
-1.45
-5.52
-9.00
-11.88
-14.24
-16.25
-18.17
-20.29
-22.97
-26.42
-30.69
-35.34
-39.56
-42.24
-42.36
-39.31
-33.12
-24.36
-13.97
-2.91
7.99
18.08
26.85
33.88
38.86
41.68
42.47
41.54
39.27
36.05
32.24
28.23
24.49
21.50
19.63
18.98
19.34
20.25
21.23
21.90
22.06
21.65
20.61
18.89
16.41
13.20
9.34
4.98
0.29
-4.63
-9.66
-14.60
-19.17
-23.08
-26.21
-28.69
-30.93
-33.46
-36.70
-40.90
-46.18
-52.56
-60.05
-68.49
-77.44
-86.10
-93.44
-98.49
-100.68
-100.15
-97.65
-94.39
-91.62
-90.27
-90.82
-93.26
-97.36
-102.89
-109.84
-118.29
-128.13
-138.87
-149.67
-159.80
-169.19
-178.51
-188.72
-200.07
-211.14
-218.74
-218.83
-207.99
-184.90
-150.66
-107.91
-59.32
-6.37
50.55
111.04
173.24
233.39
286.65
328.80
357.84
374.49
381.47
381.92
378.12
370.94
360.41
346.49
329.72
311.22
292.22
273.56
255.50
238.01
221.21
205.57
191.78
180.43
171.72
165.20
160.06
155.46
150.92
146.48
142.65
140.18
139.71
141.30
143.89
145.07
141.42
129.49
107.23
75.22
36.96
-2.12
-36.46
-62.32
-78.68
-87.06
-90.26
-91.06
-91.34
-92.08
-93.91
-97.43
-103.25
-111.63
-122.17
-133.88
-145.54
-156.18
-165.52
-173.98
-182.38
-191.70
-202.62
-215.41
-229.80
-245.05
-260.22
-274.39
-287.04
-298.01
-307.17
-313.94
-316.71
-313.06
-300.43
-277.14
-243.19
-200.38
-151.60
-99.95
-48.01
2.32
49.62
92.65
130.38
162.20
188.22
209.22
226.29
240.41
252.19
261.98
270.20
277.30
283.42
287.92
289.21
285.21
274.29
256.13
231.77
202.89
170.73
135.60
97.35
56.54
15.55
-21.45
-49.65
-65.53
-68.32
-60.17
-45.12
-27.25
-9.51
6.82
21.59
35.15
47.98
61.09
76.39
96.45
123.31
156.68
192.83
224.93
245.16
247.71
231.00
198.08
154.92
107.84
61.37
17.61
-22.88
-59.69
-91.69
-117.19
-134.81
-144.37
-147.02
-144.80
-139.75
-133.35
-126.36
-119.07
-111.65
-104.47
-98.15
-93.38
-90.72
-90.29
-91.76
-94.29
-96.82
-98.37
-98.45
-97.26
-95.61
-94.69
-95.44
-98.14
-102.16
-106.28
-109.12
-109.75
-108.06
-104.67
-100.58
-96.71
-93.63
-91.52
-90.29
-89.73
-89.53
-89.25
-88.30
-85.98
-81.75
-75.41
-67.18
-57.69
-47.74
-38.06
-29.16
-21.29
-14.56
-9.10
-5.15
-3.02
-2.89
-4.62
-7.67
-11.11
-13.98
-15.56
-15.58
-14.21
-11.90
-9.15
-6.38
-3.85
-1.80
-0.48
-0.11
-0.83
-2.57
-5.01
-7.68
-10.12
-12.07
-13.61
-15.07
-16.90
-19.47
-22.86
-26.97
-31.50
-36.07
-40.24
-43.42
-44.96
-44.22
-40.83
-34.87
-26.99
-18.16
-9.43
-1.52
5.20
10.74
15.25
18.86
21.63
23.55
24.60
24.81
24.27
23.13
21.60
19.91
18.33
17.08
16.29
16.00
16.11
16.39
16.54
16.21
15.15
13.26
10.67
7.73
4.84
2.35
0.35
-1.30
-2.96
-5.06
-8.03
-12.16
-17.55
-24.01
-30.99
-37.65
-42.95
-45.95
-46.05
-43.23
-37.98
-31.10
-23.39
-15.46
-7.68
-0.31
6.36
11.92
15.97
18.24
18.74
17.81
15.96
13.72
11.52
9.58
7.97
6.69
5.77
5.18
4.84
4.49
3.75
2.17
-0.65
-4.82
-10.20
-16.36
-22.77
-29.02
-34.94
-40.67
-46.51
-52.76
-59.57
-66.90
-74.63
-82.64
-90.99
-99.95
-109.91
-121.30
-134.63
-150.32
-168.68
-189.61
-212.19
-234.49
-253.55
-265.80
-267.80
-257.17
-233.03
-196.22
-148.89
-94.14
-35.75
22.08
74.89
118.55
150.18
169.05
176.85
177.17
174.17
171.26
170.30
171.61
174.73
179.26
185.25
193.16
203.45
216.22
231.01
247.05
263.45
279.43
294.31
307.33
317.28
322.59
321.67
313.60
298.76
278.93
256.69
234.52
213.97
195.43
178.55
162.67
147.03
130.64
112.19
90.34
64.58
35.97
7.09
-18.99
-40.26
-56.99
-71.64
-87.58
-107.37
-131.64
-159.03
-187.02
-213.01
-235.08
-251.91
-262.49
-265.90
-261.38
-248.71
-228.53
-202.40
-172.40
-140.58
-108.36
-76.38
-44.73
-13.29
17.87
48.25
76.93
102.62
123.64
138.01
143.67
139.04
123.60
98.51
66.67
32.12
-0.83
-28.74
-49.68
-63.50
-71.39
-75.26
-77.03
-78.12
-79.22
-80.33
-81.04
-80.87
-79.54
-77.10
-73.95
-70.64
-67.77
-65.94
-65.67
-67.30
-70.85
-76.00
-82.13
-88.59
-94.97
-101.42
-108.57
-117.16
-127.50
-138.95
-149.87
-157.98
-161.19
-158.38
-149.99
-138.12
-126.20
-118.09
-116.92
-124.06
-138.27
-155.95
-171.84
-180.66
-178.44
-163.52
-136.36
-98.59
-52.13
0.92
57.66
113.56
162.62
198.88
218.84
223.36
217.54
208.57
202.37
201.24
203.59
205.92
205.58
202.48
198.80
197.16
198.64
202.04
204.76
204.56
200.98
195.59
191.30
190.83
195.52
204.80
216.42
227.34
234.84
237.52
235.82
231.78
228.11
227.10
229.81
236.08
245.09
256.01
268.31
281.59
295.24
308.37
320.14
330.08
338.20
344.45
348.13
347.62
340.91
326.55
304.60
276.78
245.88
214.61
184.70
156.77
130.62
105.88
82.30
59.63
37.42
14.91
-8.76
-34.19
-61.38
-89.71
-118.29
-146.27
-173.26
-199.47
-225.69
-252.93
-281.97
-312.75
-344.02
-373.34
-397.71
-414.43
-422.08
-421.01
-413.12
-401.07
-387.16
-372.60
-357.21
-339.98
-319.80
-296.24
-269.84
-241.95
-214.12
-187.58
-162.92
-140.11
-118.85
-98.91
-80.43
-63.83
-49.64
-38.18
-29.52
-23.40
-19.40
-17.09
-16.12
-16.08
-16.46
-16.52
-15.39
-12.41
-7.55
-1.78
3.09
4.91
2.13
-5.50
-16.73
-29.25
-40.69
-49.44
-55.06
-58.14
-59.71
-60.66
-61.52
-62.40
-63.33
-64.31
-65.43
-66.68
-67.95
-68.97
-69.36
-68.62
-66.23
-61.59
-54.21
-43.88
-30.87
-15.97
-0.47
14.13
26.48
35.69
41.49
44.21
44.50
43.08
40.49
37.01
32.77
27.90
22.73
17.70
13.33
10.01
7.86
6.75
6.38
6.44
6.65
6.81
6.81
6.52
5.88
4.86
3.46
1.66
-0.51
-3.02
-5.83
-8.84
-12.05
-15.51
-19.48
-24.29
-30.19
-37.21
-45.13
-53.52
-61.87
-69.58
-76.03
-80.55
-82.39
-80.98
-76.11
-68.13
-57.95
-46.83
-36.08
-26.72
-19.23
-13.54
-9.17
-5.55
-2.31
0.56
2.71
3.80
3.76
3.14
2.90
4.12
7.37
12.40
18.14
23.14
26.17
26.77
25.30
22.69
19.79
16.98
14.13
10.90
7.21
3.44
0.26
-1.73
-2.51
-2.62
-2.95
-4.26
-6.79
-10.36
-14.61
-19.33
-24.51
-30.09
-35.67
-40.38
-43.12
-43.05
-40.03
-34.67
-28.08
-21.38
-15.33
-10.12
-5.65
-1.65
1.88
4.67
6.29
6.44
5.22
3.17
1.19
0.14
0.42
1.86
3.71
5.03
5.21
4.24
2.77
1.85
2.33
4.52
7.96
11.70
14.69
16.18
16.05
14.67
12.68
10.51
8.33
5.98
3.21
-0.15
-4.04
-8.31
-12.87
-17.72
-22.83
-28.00
-32.59
-35.70
-36.33
-33.82
-28.01
-19.46
-9.13
1.86
12.52
22.11
30.21
36.49
40.73
42.82
42.90
41.39
39.01
36.54
34.59
33.38
32.73
32.25
31.56
30.46
28.97
27.24
25.30
23.15
20.69
17.89
14.81
11.54
8.19
4.79
1.40
-1.89
-4.94
-7.71
-10.31
-13.08
-16.49
-21.03
-26.89
-33.80
-40.98
-47.27
-51.45
-52.67
-50.67
-45.84
-39.05
-31.23
-23.13
-15.15
-7.55
-0.62
5.14
9.08
10.74
10.13
7.86
5.02
2.73
1.70
2.06
3.43
5.19
6.83
8.17
9.27
10.33
11.46
12.64
13.67
14.40
14.80
14.99
15.29
16.07
17.60
19.84
22.49
24.92
26.40
26.30
24.24
20.11
13.93
5.87
-3.77
-14.33
-24.74
-33.54
-39.34
-41.14
-38.79
-32.91
-24.72
-15.58
-6.62
1.43
8.28
13.88
18.30
21.66
24.07
25.74
26.98
28.25
30.00
32.55
35.90
39.76
43.71
47.42
50.76
53.79
56.53
58.76
60.06
59.86
57.80
53.79
48.12
41.29
33.90
26.48
19.57
13.69
9.22
6.42
5.24
5.34
6.19
7.06
7.18
5.78
2.29
-3.42
-10.79
-18.61
-25.19
-28.91
-28.75
-24.64
-17.48
-8.75
0.10
8.11
15.08
21.33
27.30
33.09
38.36
42.44
44.77
45.26
44.37
42.91
41.68
41.07
41.01
41.12
41.07
40.73
40.23
39.75
39.33
38.75
37.65
35.64
32.60
28.67
24.22
19.70
15.39
11.35
7.49
3.72
0.07
-3.21
-5.79
-7.47
-8.40
-9.23
-10.89
-14.33
-20.07
-27.92
-36.85
-45.28
-51.42
-53.87
-51.95
-45.87
-36.48
-25.00
-12.61
-0.25
11.49
22.22
31.63
39.36
45.04
48.39
49.35
48.15
45.32
41.57
37.64
34.26
31.91
30.89
31.17
32.50
34.46
36.56
38.37
39.54
39.80
38.98
36.96
33.80
29.82
25.55
21.61
18.44
16.11
14.29
12.38
9.83
6.41
2.27
-2.11
-6.24
-9.81
-12.88
-15.75
-18.87
-22.66
-27.28
-32.66
-38.36
-43.68
-47.76
-49.76
-49.08
-45.47
-39.14
-30.69
-20.98
-10.82
-0.90
8.33
16.53
23.41
28.60
31.75
32.72
31.79
29.67
27.37
25.79
25.41
26.07
27.19
28.07
28.29
27.87
27.22
26.79
26.74
26.82
26.56
25.44
23.28
20.31
17.04
14.01
11.57
9.73
8.23
6.73
4.98
2.92
0.65
-1.69
-3.99
-6.23
-8.48
-10.84
-13.45
-16.52
-20.26
-24.87
-30.37
-36.50
-42.70
-48.17
-52.06
-53.66
-52.61
-48.96
-43.15
-35.86
-27.84
-19.75
-12.00
-4.75
1.98
8.20
13.84
18.75
22.80
25.91
28.25
30.08
31.69
33.21
34.48
35.22
35.17
34.26
32.74
31.01
29.48
28.27
27.24
25.99
24.13
21.47
18.08
14.35
10.71
7.58
5.16
3.44
2.12
0.82
-0.86
-3.14
-5.98
-9.10
-12.16
-14.89
-17.30
-19.64
-22.26
-25.44
-29.28
-33.74
-38.69
-43.97
-49.33
-54.32
-58.25
-60.24
-59.51
-55.67
-48.96
-40.24
-30.64
-21.25
-12.72
-5.24
1.35
7.26
12.47
16.81
19.97
21.83
22.57
22.65
22.65
23.05
24.03
25.50
27.20
28.87
30.32
31.53
32.51
33.27
33.67
33.47
32.41
30.36
27.38
23.75
19.91
16.26
13.08
10.41
8.06
5.77
3.25
0.37
-2.83
-6.21
-9.58
-12.85
-15.97
-18.98
-21.87
-24.60
-27.10
-29.42
-31.71
-34.29
-37.41
-41.06
-44.80
-47.88
-49.40
-48.70
-45.62
-40.45
-33.88
-26.64
-19.31
-12.21
-5.43
0.96
6.81
11.79
15.49
17.60
18.13
17.42
16.10
14.86
14.18
14.27
14.97
15.98
16.97
17.75
18.24
18.44
18.34
17.91
17.12
16.04
14.81
13.55
12.37
11.22
10.00
8.62
7.03
5.25
3.22
0.80
-2.24
-6.06
-10.55
-15.31
-19.73
-23.23
-25.56
-26.82
-27.33
-27.44
-27.32
-27.10
-26.99
-27.48
-29.23
-32.66
-37.67
-43.35
-48.36
-51.34
-51.49
-48.82
-44.03
-38.09
-31.88
-25.92
-20.38
-15.25
-10.42
-5.86
-1.58
2.34
5.78
8.70
11.02
12.83
14.22
15.32
16.20
16.87
17.34
17.65
17.91
18.25
18.77
19.47
20.23
20.88
21.31
21.49
21.40
21.04
20.33
19.18
17.53
15.40
12.94
10.31
7.69
5.18
2.84
0.66
-1.40
-3.42
-5.53
-7.87
-10.54
-13.49
-16.51
-19.36
-21.88
-24.16
-26.52
-29.42
-33.27
-38.14
-43.70
-49.17
-53.54
-55.75
-55.04
-51.17
-44.51
-35.97
-26.74
-17.90
-10.21
-3.93
1.06
5.07
8.40
11.24
13.68
15.72
17.37
18.74
19.89
20.95
21.95
22.91
23.74
24.44
24.97
25.37
25.73
26.04
26.27
26.32
25.95
24.99
23.32
20.98
18.21
15.31
12.61
10.29
8.38
6.71
5.06
3.28
1.30
-0.77
-2.85
-4.94
-7.10
-9.51
-12.30
-15.45
-18.75
-21.96
-24.82
-27.31
-29.69
-32.42
-36.04
-40.83
-46.59
-52.62
-57.77
-60.82
-60.91
-57.74
-51.67
-43.57
-34.46
-25.26
-16.55
-8.62
-1.53
4.68
9.94
14.16
17.22
19.15
20.14
20.50
20.58
20.68
20.96
21.47
22.22
23.18
24.37
25.73
27.12
28.32
29.11
29.33
28.99
28.14
26.88
25.32
23.52
21.47
19.23
16.80
14.27
11.72
9.26
7.00
5.02
3.18
1.25
-1.14
-4.26
-8.12
-12.47
-16.82
-20.79
-24.16
-27.04
-29.78
-32.84
-36.62
-41.33
-46.93
-52.98
-58.69
-63.07
-65.11
-64.05
-59.62
-52.09
-42.21
-31.06
-19.76
-9.27
-0.22
7.17
12.96
17.41
20.78
23.20
24.75
25.59
25.99
26.33
26.99
28.18
29.85
31.77
33.63
35.19
36.34
37.01
37.23
37.02
36.40
35.38
33.96
32.17
30.04
27.63
25.05
22.45
19.99
17.80
15.96
14.46
13.16
11.82
10.15
7.93
5.13
1.94
-1.25
-4.10
-6.46
-8.52
-10.78
-13.96
-18.77
-25.75
-35.06
-46.21
-57.99
-68.58
-75.88
-78.19
-74.77
-66.11
-53.80
-39.91
-26.27
-13.98
-3.41
5.59
13.18
19.29
23.70
26.25
27.10
26.76
25.88
24.96
24.07
22.91
21.16
18.68
15.79
13.07
11.14
10.29
10.38
10.92
11.30
11.08
10.11
8.52
6.61
4.65
2.85
1.22
-0.33
-1.92
-3.58
-5.17
-6.37
-6.86
-6.54
-5.65
-4.77
-4.67
-5.99
-9.07
-13.78
-19.60
-25.71
-31.31
-35.69
-38.47
-39.63
-39.56
-38.95
-38.57
-39.01
-40.37
-42.16
-43.42
-43.02
-40.15
-34.64
-27.02
-18.37
-9.85
-2.28
4.04
9.27
13.69
17.35
19.99
21.28
21.09
19.78
18.23
17.44
18.05
20.01
22.52
24.38
24.55
22.47
18.32
12.84
7.01
1.77
-2.20
-4.62
-5.53
-5.30
-4.39
-3.24
-2.09
-1.04
-0.26
-0.16
-1.46
-5.03
-11.46
-20.63
-31.50
-42.29
-50.94
-55.72
-55.68
-50.78
-41.73
-29.68
-15.87
-1.36
12.90
26.25
38.18
48.45
57.00
64.00
69.78
74.68
78.97
82.69
85.68
87.55
87.90
86.43
83.14
78.37
72.76
67.03
61.78
57.32
53.55
50.12
46.60
42.66
38.23
33.46
28.67
24.11
19.97
16.20
12.63
9.01
5.01
0.29
-5.49
-12.53
-20.82
-30.01
-39.38
-47.92
-54.52
-58.29
-58.68
-55.63
-49.50
-40.94
-30.71
-19.55
-8.08
3.21
13.95
23.88
32.70
40.07
45.54
48.76
49.59
48.26
45.41
41.90
38.56
36.02
34.49
33.86
33.79
33.87
33.73
33.09
31.73
29.54
26.50
22.65
18.13
13.10
7.73
2.10
-3.79
-10.08
-16.96
-24.44
-32.20
-39.54
-45.52
-49.30
-50.46
-49.15
-45.92
-41.33
-35.79
-29.43
-22.38
-14.95
-7.75
-1.52
3.21
6.39
8.44
10.10
12.09
14.86
18.39
22.32
26.01
28.79
30.15
29.90
28.19
25.39
22.00
18.46
15.11
12.17
9.79
8.09
7.12
6.86
7.09
7.42
7.34
6.37
4.20
0.85
-3.43
-8.18
-13.04
-17.84
-22.63
-27.67
-33.23
-39.41
-46.06
-52.71
-58.54
-62.48
-63.38
-60.32
-52.95
-41.68
-27.78
-13.00
0.89
12.67
21.85
28.68
33.80
37.84
41.11
43.61
45.18
45.73
45.38
44.46
43.37
42.39
41.64
41.10
40.66
40.25
39.82
39.29
38.50
37.22
35.23
32.36
28.61
24.14
19.23
14.18
9.24
4.56
0.15
-4.13
-8.54
-13.37
-18.89
-25.26
-32.44
-40.11
-47.66
-54.29
-59.13
-61.44
-60.78
-57.12
-50.77
-42.37
-32.71
-22.53
-12.49
-2.99
5.74
13.65
20.68
26.70
31.52
34.98
37.07
37.99
38.13
37.93
37.64
37.28
36.69
35.71
34.41
33.17
32.54
33.01
34.62
36.96
39.20
40.41
39.89
37.41
33.18
27.70
21.54
15.13
8.71
2.35
-3.87
-9.82
-15.20
-19.69
-23.01
-25.13
-26.33
-27.17
-28.36
-30.61
-34.39
-39.87
-46.81
-54.55
-62.06
-68.12
-71.51
-71.35
-67.36
-59.93
-50.01
-38.90
-27.81
-17.69
-9.00
-1.83
4.05
9.04
13.50
17.63
21.43
24.70
27.16
28.67
29.29
29.35
29.24
29.31
29.62
30.07
30.42
30.48
30.23
29.75
29.09
28.20
26.84
24.80
22.00
18.63
15.15
12.08
9.74
8.12
6.79
5.18
2.80
-0.53
-4.60
-8.98
-13.17
-16.84
-19.90
-22.41
-24.52
-26.37
-28.18
-30.20
-32.80
-36.36
-41.11
-46.96
-53.39
-59.51
-64.15
-66.20
-64.90
-60.10
-52.32
-42.65
-32.36
-22.53
-13.77
-6.12
0.68
6.98
12.90
18.28
22.78
26.05
27.96
28.63
28.37
27.63
26.76
26.01
25.47
25.14
24.97
24.83
24.56
23.95
22.81
21.08
18.91
16.64
14.62
13.07
11.96
11.05
10.03
8.69
7.00
5.00
2.72
0.10
-2.96
-6.50
-10.37
-14.34
-18.16
-21.67
-24.81
-27.64
-30.31
-33.04
-36.10
-39.76
-44.13
-49.03
-53.91
-57.98
-60.39
-60.53
-58.16
-53.39
-46.67
-38.58
-29.74
-20.84
-12.45
-5.03
1.19
6.18
10.12
13.22
15.64
17.50
18.86
19.73
20.12
20.07
19.63
18.93
18.18
17.53
17.12
16.94
16.92
17.00
17.23
17.66
18.27
18.83
18.94
18.13
16.13
13.00
9.12
4.96
0.95
-2.66
-5.76
-8.34
-10.46
-12.27
-14.06
-16.12
-18.68
-21.75
-25.19
-28.71
-31.98
-34.65
-36.35
-36.75
-35.74
-33.53
-30.66
-27.76
-25.16
-22.72
-19.87
-16.07
-11.22
-5.80
-0.65
3.53
6.59
9.04
11.60
14.70
18.16
21.31
23.35
23.85
22.96
21.33
19.77
18.84
18.71
19.11
19.59
19.79
19.60
19.19
18.84
18.76
18.91
19.04
18.80
17.91
16.28
14.06
11.49
8.86
6.33
3.95
1.66
-0.61
-2.99
-5.58
-8.40
-11.37
-14.29
-16.93
-19.12
-20.88
-22.47
-24.29
-26.79
-30.29
-34.88
-40.41
-46.47
-52.39
-57.33
-60.41
-60.86
-58.29
-52.79
-44.97
-35.83
-26.40
-17.52
-9.65
-2.87
2.99
8.13
12.62
16.30
18.91
20.30
20.46
19.69
18.51
17.50
17.11
17.55
18.73
20.35
22.05
23.51
24.54
25.04
25.02
24.46
23.39
21.86
19.96
17.84
15.67
13.59
11.63
9.74
7.78
5.65
3.30
0.75
-1.87
-4.45
-6.96
-9.43
-11.97
-14.68
-17.69
-21.04
-24.80
-29.04
-33.92
-39.53
-45.84
-52.54
-58.91
-63.96
-66.62
-66.15
-62.29
-55.46
-46.53
-36.58
-26.54
-17.11
-8.66
-1.34
4.87
10.06
14.34
17.89
20.80
23.07
24.69
25.61
25.95
25.89
25.73
25.69
25.93
26.44
27.23
28.25
29.49
30.92
32.40
33.75
34.78
35.35
35.37
34.79
33.54
31.51
28.60
24.71
19.92
14.39
8.41
2.27
-3.70
-9.21
-13.94
-17.66
-20.26
-21.92
-23.10
-24.53
-26.99
-31.10
-37.07
-44.52
-52.58
-59.98
-65.34
-67.50
-65.79
-60.27
-51.69
-41.39
-30.83
-21.23
-13.23
-6.90
-1.82
2.53
6.63
10.75
14.96
19.16
23.09
26.44
28.88
30.22
30.53
30.22
29.88
30.02
30.89
32.30
33.72
34.58
34.48
33.41
31.65
29.60
27.48
25.28
22.74
19.58
15.73
11.35
6.87
2.69
-0.97
-4.15
-7.15
-10.36
-14.18
-18.85
-24.54
-31.29
-38.98
-47.29
-55.62
-63.01
-68.32
-70.45
-68.67
-62.91
-53.77
-42.35
-29.94
-17.70
-6.41
3.48
11.83
18.62
23.89
27.74
30.35
31.99
32.96
33.55
33.95
34.22
34.35
34.30
34.10
33.91
33.95
34.46
35.53
37.05
38.67
39.91
40.26
39.38
37.19
33.81
29.57
24.87
20.08
15.50
11.32
7.64
4.49
1.84
-0.40
-2.38
-4.44
-7.03
-10.73
-16.04
-23.17
-31.92
-41.53
-50.81
-58.38
-63.05
-64.05
-61.28
-55.22
-46.80
-37.06
-26.90
-16.93
-7.47
1.34
9.38
16.48
22.41
26.95
30.04
31.84
32.61
32.76
32.60
32.36
32.11
31.82
31.44
31.01
30.66
30.60
30.99
31.80
32.81
33.65
33.91
33.31
31.72
29.12
25.55
21.06
15.70
9.67
3.34
-2.75
-8.08
-12.29
-15.35
-17.53
-19.34
-21.34
-24.08
-27.92
-32.97
-38.97
-45.28
-50.89
-54.71
-55.83
-53.78
-48.59
-40.75
-31.01
-20.18
-8.93
2.22
12.89
22.73
31.38
38.47
43.68
46.92
48.36
48.53
48.10
47.66
47.47
47.46
47.32
46.73
45.59
44.11
42.69
41.57
40.73
39.73
37.92
34.75
30.01
23.91
16.98
9.73
2.49
-4.68
-11.85
-18.96
-25.75
-31.81
-36.73
-40.49
-43.44
-46.22
-49.52
-53.79
-59.04
-64.77
-70.11
-73.98
-75.39
-73.66
-68.61
-60.55
-50.19
-38.42
-26.13
-14.11
-3.00
6.60
14.16
19.30
21.96
22.50
21.74
20.77
20.60
21.96
25.05
29.56
34.81
39.94
44.13
46.74
47.44
46.23
43.40
39.45
34.93
30.29
25.82
21.66
17.82
14.28
11.01
7.92
4.88
1.71
-1.79
-5.83
-10.57
-16.04
-22.20
-28.81
-35.46
-41.59
-46.46
-49.28
-49.24
-45.68
-38.35
-27.55
-14.21
0.21
14.18
26.44
36.33
43.76
48.99
52.28
53.77
53.51
51.66
48.64
45.08
41.70
38.99
37.22
36.36
36.19
36.40
36.63
36.51
35.76
34.22
31.92
29.00
25.67
22.12
18.50
14.94
11.53
8.29
5.12
1.86
-1.70
-5.64
-9.89
-14.31
-18.87
-23.70
-29.13
-35.42
-42.55
-50.02
-56.86
-61.86
-63.89
-62.24
-56.78
-48.05
-37.06
-25.14
-13.52
-3.20
5.33
12.02
17.19
21.39
25.07
28.49
31.61
34.21
36.04
37.00
37.17
36.85
36.37
35.96
35.72
35.53
35.22
34.58
33.46
31.74
29.36
26.35
22.87
19.16
15.46
11.92
8.48
5.02
1.39
-2.39
-6.18
-9.74
-12.95
-15.89
-18.86
-22.25
-26.35
-31.25
-36.81
-42.74
-48.61
-53.87
-57.83
-59.75
-59.07
-55.55
-49.45
-41.46
-32.53
-23.59
-15.32
-8.06
-1.88
3.36
7.81
11.64
14.99
17.94
20.56
22.78
24.52
25.68
26.25
26.34
26.20
26.10
26.27
26.81
27.59
28.35
28.75
28.51
27.49
25.74
23.40
20.66
17.63
14.37
10.85
7.10
3.20
-0.66
-4.27
-7.46
-10.16
-12.43
-14.46
-16.50
-18.89
-22.00
-26.15
-31.48
-37.81
-44.53
-50.68
-55.14
-57.01
-55.82
-51.76
-45.60
-38.31
-30.78
-23.51
-16.63
-10.05
-3.73
2.20
7.41
11.53
14.39
16.10
16.95
17.37
17.66
17.99
18.43
18.99
19.69
20.60
21.72
22.96
24.15
25.00
25.30
24.90
23.87
22.35
20.58
18.71
16.78
14.69
12.30
9.45
6.10
2.29
-1.85
-6.06
-10.13
-13.85
-17.19
-20.36
-23.81
-28.02
-33.27
-39.38
-45.57
-50.72
-53.63
-53.48
-50.12
-44.09
-36.35
-27.98
-19.81
-12.24
-5.34
1.03
7.00
12.50
17.29
21.03
23.41
24.37
24.14
23.20
22.14
21.49
21.44
21.91
22.54
22.91
22.76
22.14
21.28
20.49
19.86
19.23
18.29
16.75
14.55
11.92
9.25
6.85
4.83
3.03
1.09
-1.32
-4.41
-8.11
-12.09
-15.88
-19.04
-21.33
-22.84
-24.06
-25.66
-28.30
-32.36
-37.71
-43.78
-49.68
-54.46
-57.29
-57.66
-55.43
-50.78
-44.18
-36.24
-27.67
-19.19
-11.36
-4.58
1.05
5.70
9.71
13.33
16.70
19.75
22.28
24.21
25.64
26.78
27.86
28.97
30.02
30.79
31.12
30.98
30.47
29.71
28.76
27.62
26.28
24.77
23.20
21.70
20.31
18.94
17.46
15.77
13.82
11.67
9.36
6.88
4.17
1.18
-2.07
-5.45
-8.77
-11.92
-14.89
-17.83
-20.94
-24.40
-28.35
-32.84
-37.86
-43.28
-48.64
-53.20
-55.98
-56.10
-53.09
-47.19
-39.22
-30.35
-21.62
-13.64
-6.51
-0.04
5.98
11.58
16.50
20.42
23.18
24.90
25.93
26.70
27.51
28.42
29.27
29.86
30.12
30.21
30.36
30.74
31.27
31.67
31.54
30.56
28.66
25.98
22.78
19.37
15.99
12.76
9.74
6.91
4.16
1.30
-1.87
-5.53
-9.70
-14.18
-18.60
-22.55
-25.72
-28.06
-29.82
-31.50
-33.68
-36.86
-41.24
-46.56
-52.14
-56.97
-60.10
-60.80
-58.89
-54.60
-48.54
-41.41
-33.81
-26.18
-18.83
-11.96
-5.73
-0.29
4.29
7.97
10.74
12.67
13.91
14.74
15.50
16.60
18.24
20.49
23.14
25.89
28.43
30.62
32.42
33.81
34.74
35.01
34.43
32.91
30.60
27.89
25.34
23.37
22.13
21.37
20.58
19.10
16.35
12.07
6.29
-0.58
-7.93
-15.05
-21.36
-26.57
-30.73
-34.20
-37.42
-40.85
-44.75
-49.26
-54.28
-59.46
-64.21
-67.68
-68.96
-67.35
-62.70
-55.49
-46.76
-37.71
-29.24
-21.79
-15.23
-9.23
-3.51
1.93
6.87
11.04
14.31
16.82
18.90
20.95
23.20
25.68
28.20
30.50
32.35
33.70
34.72
35.62
36.54
37.33
37.61
36.93
35.07
32.14
28.71
25.43
22.82
21.01
19.72
18.43
16.68
14.15
10.82
6.77
2.29
-2.32
-6.73
-10.69
-14.10
-17.13
-20.13
-23.63
-28.07
-33.54
-39.72
-45.81
-50.69
-53.33
-53.10
-49.96
-44.40
-37.32
-29.57
-21.80
-14.33
-7.19
-0.32
6.35
12.81
18.91
24.55
29.53
33.65
36.72
38.59
39.25
38.86
37.80
36.54
35.52
35.05
35.17
35.70
36.29
36.58
36.29
35.23
33.37
30.77
27.63
24.15
20.59
17.10
13.71
10.30
6.67
2.68
-1.67
-6.20
-10.62
-14.66
-18.17
-21.23
-24.20
-27.54
-31.76
-37.13
-43.54
-50.43
-56.91
-61.97
-64.77
-64.79
-61.94
-56.47
-48.87
-39.77
-29.84
-19.76
-10.12
-1.30
6.47
13.03
18.31
22.19
24.62
25.70
25.76
25.30
24.85
24.78
25.16
25.87
26.71
27.55
28.37
29.22
30.04
30.66
30.76
30.05
28.37
25.85
22.75
19.43
16.12
12.89
9.58
5.93
1.72
-3.03
-8.12
-13.14
-17.70
-21.62
-25.03
-28.41
-32.36
-37.41
-43.75
-51.03
-58.43
-64.79
-68.90
-69.85
-67.28
-61.36
-52.78
-42.51
-31.49
-20.46
-9.88
-0.00
9.00
16.91
23.45
28.35
31.52
33.12
33.60
33.48
33.24
33.11
33.13
33.23
33.40
33.78
34.51
35.61
36.86
37.83
38.12
37.46
35.85
33.50
30.66
27.51
24.09
20.37
16.32
12.00
7.57
3.18
-1.07
-5.24
-9.46
-13.95
-18.94
-24.67
-31.27
-38.66
-46.46
-53.86
-59.80
-63.07
-62.76
-58.53
-50.67
-40.17
-28.29
-16.19
-4.75
5.63
14.88
23.05
30.22
36.33
41.21
44.71
46.76
47.46
47.09
45.98
44.44
42.70
40.94
39.33
38.02
37.12
36.66
36.46
36.29
35.86
35.03
33.80
32.27
30.54
28.60
26.26
23.26
19.32
14.33
8.42
1.93
-4.65
-10.80
-16.22
-20.83
-24.90
-28.87
-33.27
-38.34
-44.00
-49.55
-53.93
-55.87
-54.38
-49.04
-40.27
-29.17
-17.21
-5.72
4.44
12.96
19.96
25.64
30.07
33.14
34.71
34.77
33.68
32.04
30.51
29.62
29.55
30.19
31.31
32.68
34.21
35.83
37.39
38.64
39.25
38.96
37.73
35.69
33.06
29.97
26.39
22.23
17.41
12.05
6.36
0.66
-4.86
-10.15
-15.31
-20.51
-25.91
-31.69
-38.04
-45.03
-52.46
-59.64
-65.49
-68.78
-68.50
-64.30
-56.59
-46.34
-34.77
-22.99
-11.82
-1.72
7.05
14.41
20.31
24.77
27.82
29.60
30.36
30.47
30.38
30.52
31.08
32.00
32.94
33.56
33.66
33.25
32.59
31.89
31.18
30.26
28.84
26.68
23.79
20.38
16.79
13.33
10.05
6.87
3.57
-0.03
-3.92
-7.89
-11.59
-14.71
-17.18
-19.21
-21.31
-24.17
-28.39
-34.26
-41.63
-49.82
-57.73
-64.08
-67.67
-67.67
-63.85
-56.65
-47.03
-36.16
-25.13
-14.72
-5.30
3.05
10.40
16.79
22.16
26.44
29.55
31.57
32.71
33.29
33.61
33.86
34.11
34.32
34.46
34.55
34.68
34.98
35.48
36.01
36.23
35.79
34.46
32.28
29.54
26.65
23.95
21.58
19.43
17.29
14.90
12.16
9.06
5.68
2.04
-1.84
-5.99
-10.43
-15.06
-19.87
-24.90
-30.39
-36.54
-43.40
-50.52
-56.96
-61.51
-63.05
-61.04
-55.69
-47.83
-38.57
-28.86
-19.30
-10.09
-1.24
7.19
14.98
21.80
27.33
31.42
34.10
35.60
36.31
36.59
36.78
37.02
37.37
37.77
38.20
38.66
39.20
39.80
40.26
40.26
39.41
37.44
34.30
30.23
25.59
20.81
16.23
12.01
8.17
4.55
0.87
-3.16
-7.65
-12.47
-17.19
-21.33
-24.58
-27.03
-29.11
-31.50
-34.77
-39.19
-44.62
-50.53
-56.11
-60.43
-62.63
-62.13
-58.75
-52.76
-44.88
-36.00
-26.97
-18.38
-10.47
-3.26
3.32
9.29
14.49
18.67
21.60
23.28
23.91
23.87
23.63
23.51
23.62
23.87
24.11
24.19
24.13
23.99
23.81
23.51
22.89
21.74
19.96
17.64
15.06
12.55
10.36
8.52
6.86
5.04
2.66
-0.55
-4.67
-9.51
-14.70
-19.71
-24.15
-27.79
-30.79
-33.55
-36.63
-40.52
-45.43
-51.13
-56.95
-61.91
-64.94
-65.12
-62.03
-55.85
-47.26
-37.28
-26.93
-16.98
-7.83
0.39
7.67
13.93
19.05
22.83
25.19
26.21
26.20
25.59
24.83
24.29
24.17
24.46
25.06
25.80
26.53
27.17
27.66
27.93
27.89
27.42
26.43
24.89
22.83
20.39
17.76
15.11
12.62
10.36
8.26
6.14
3.76
0.88
-2.59
-6.54
-10.73
-14.86
-18.72
-22.25
-25.59
-28.98
-32.65
-36.75
-41.25
-45.97
-50.50
-54.26
-56.57
-56.76
-54.37
-49.32
-41.97
-33.10
-23.60
-14.31
-5.82
1.68
8.24
14.03
19.10
23.40
26.71
28.84
29.71
29.48
28.50
27.25
26.16
25.56
25.56
26.12
27.16
28.54
30.14
31.83
33.37
34.43
34.65
33.82
31.97
29.44
26.72
24.23
22.14
20.24
18.03
15.01
10.86
5.66
-0.17
-6.05
-11.43
-16.02
-19.86
-23.31
-26.84
-30.90
-35.79
-41.57
-48.01
-54.64
-60.76
-65.46
-67.85
-67.24
-63.42
-56.79
-48.21
-38.80
-29.53
-20.97
-13.24
-6.15
0.49
6.70
12.29
16.93
20.41
22.76
24.24
25.29
26.24
27.24
28.17
28.77
28.84
28.41
27.72
27.15
26.95
27.08
27.25
26.98
25.89
23.83
20.94
17.53
13.98
10.51
7.21
3.97
0.67
-2.77
-6.37
-10.09
-13.86
-17.68
-21.56
-25.56
-29.72
-34.05
-38.66
-43.67
-49.21
-55.19
-61.14
-66.16
-69.19
-69.28
-65.95
-59.33
-50.11
-39.30
-27.90
-16.77
-6.55
2.31
9.51
14.87
18.40
20.26
20.82
20.63
20.33
20.53
21.64
23.77
26.72
30.15
33.73
37.20
40.34
42.79
43.88
42.80
38.84
31.88
22.57
12.24
2.46
-5.48
-10.95
-14.05
-15.33
-15.50
-15.10
-14.42
-13.67
-13.10
-13.02
-13.78
-15.58
-18.40
-22.03
-26.24
-30.84
-35.78
-40.98
-46.21
-50.97
-54.46
-55.86
-54.54
-50.40
-43.89
-35.96
-27.60
-19.58
-12.16
-5.15
1.80
8.92
16.01
22.48
27.66
31.08
32.69
32.95
32.54
32.07
31.93
32.20
32.81
33.71
34.88
36.35
38.00
39.55
40.57
40.67
39.65
37.62
34.88
31.81
28.75
25.81
22.99
20.13
17.04
13.58
9.73
5.55
1.30
-2.74
-6.33
-9.37
-12.11
-14.96
-18.42
-22.90
-28.51
-35.01
-41.86
-48.28
-53.38
-56.25
-56.19
-52.89
-46.54
-37.90
-28.04
-18.04
-8.70
-0.30
7.29
14.35
20.99
27.05
32.05
35.53
37.37
37.81
37.48
37.04
36.92
37.26
37.84
38.38
38.66
38.61
38.26
37.64
36.69
35.31
33.38
30.93
28.09
25.06
21.96
18.77
15.39
11.67
7.58
3.25
-1.08
-5.07
-8.54
-11.47
-14.04
-16.62
-19.57
-23.27
-27.94
-33.61
-40.00
-46.51
-52.27
-56.34
-57.97
-56.75
-52.70
-46.20
-37.89
-28.52
-18.85
-9.56
-1.18
6.00
11.85
16.40
19.73
21.91
23.06
23.39
23.28
23.24
23.76
25.10
27.19
29.68
32.06
33.92
35.03
35.37
35.00
33.96
32.25
29.84
26.85
23.49
20.05
16.75
13.58
10.35
6.68
2.37
-2.55
-7.76
-12.77
-17.19
-20.93
-24.17
-27.24
-30.57
-34.52
-39.39
-45.34
-52.32
-59.82
-66.86
-72.16
-74.42
-72.80
-67.21
-58.28
-47.14
-34.97
-22.79
-11.30
-0.92
8.10
15.66
21.81
26.76
30.77
34.10
36.89
39.14
40.78
41.77
42.14
42.02
41.59
41.02
40.50
40.10
39.83
39.60
39.22
38.46
37.11
35.00
32.13
28.62
24.68
20.62
16.66
12.90
9.27
5.61
1.76
-2.29
-6.38
-10.19
-13.48
-16.23
-18.77
-21.68
-25.60
-30.95
-37.73
-45.44
-53.15
-59.72
-64.05
-65.27
-62.98
-57.33
-48.96
-38.83
-28.00
-17.34
-7.38
1.66
9.80
17.10
23.50
28.80
32.78
35.33
36.58
36.92
36.86
36.84
37.07
37.50
37.94
38.24
38.36
38.43
38.57
38.77
38.82
38.37
37.05
34.72
31.48
27.66
23.65
19.73
15.96
12.29
8.56
4.70
0.76
-3.10
-6.76
-10.11
-13.20
-16.18
-19.27
-22.73
-26.84
-31.83
-37.79
-44.50
-51.31
-57.11
-60.60
-60.62
-56.55
-48.61
-37.71
-25.20
-12.43
-0.42
10.21
19.27
26.77
32.81
37.47
40.85
43.04
44.16
44.35
43.80
42.76
41.50
40.24
39.19
38.41
37.92
37.62
37.36
36.87
35.87
34.06
31.28
27.50
22.92
17.85
12.68
7.74
3.25
-0.70
-4.17
-7.29
-10.26
-13.23
-16.30
-19.42
-22.51
-25.53
-28.54
-31.77
-35.54
-40.05
-45.32
-50.95
-56.18
-59.98
-61.31
-59.45
-54.19
-45.98
-35.77
-24.76
-14.03
-4.28
4.27
11.74
18.34
24.16
29.05
32.73
34.95
35.70
35.24
34.08
32.70
31.46
30.52
29.84
29.37
29.10
29.03
29.17
29.37
29.33
28.63
26.96
24.24
20.71
16.81
13.03
9.66
6.70
3.85
0.74
-2.91
-7.17
-11.82
-16.49
-20.81
-24.58
-27.82
-30.85
-34.20
-38.41
-43.86
-50.51
-57.84
-64.85
-70.30
-73.02
-72.17
-67.52
-59.43
-48.80
-36.75
-24.42
-12.69
-2.10
7.14
15.05
21.72
27.24
31.59
34.72
36.53
37.03
36.40
34.97
33.23
31.61
30.43
29.80
29.63
29.75
29.97
30.18
30.29
30.16
29.56
28.25
26.06
23.05
19.50
15.81
12.36
9.28
6.51
3.75
0.70
-2.85
-6.84
-11.04
-15.08
-18.70
-21.83
-24.68
-27.66
-31.24
-35.74
-41.24
-47.49
-53.94
-59.84
-64.27
-66.38
-65.43
-61.18
-53.91
-44.47
-33.98
-23.55
-13.95
-5.43
2.10
8.88
15.03
20.43
24.81
27.97
29.88
30.80
31.18
31.43
31.81
32.32
32.75
32.89
32.66
32.19
31.77
31.67
32.01
32.62
33.08
32.90
31.71
29.40
26.19
22.50
18.81
15.44
12.43
9.56
6.52
3.09
-0.77
-4.90
-9.03
-12.92
-16.42
-19.57
-22.53
-25.54
-28.88
-32.77
-37.31
-42.42
-47.78
-52.83
-56.82
-58.97
-58.68
-55.73
-50.29
-42.94
-34.43
-25.48
-16.58
-8.02
0.08
7.57
14.25
19.83
24.07
26.90
28.46
29.07
29.16
29.11
29.20
29.60
30.25
31.03
31.75
32.29
32.63
32.81
32.83
32.59
31.86
30.41
28.11
25.04
21.51
17.90
14.56
11.63
9.03
6.52
3.82
0.72
-2.81
-6.64
-10.53
-14.24
-17.69
-20.97
-24.34
-28.08
-32.41
-37.41
-42.99
-48.87
-54.61
-59.59
-63.04
-64.23
-62.61
-58.03
-50.86
-41.91
-32.19
-22.60
-13.73
-5.76
1.39
7.84
13.53
18.25
21.73
23.81
24.65
24.64
24.32
24.16
24.48
25.38
26.81
28.65
30.69
32.70
34.41
35.56
35.95
35.48
34.23
32.33
30.00
27.34
24.44
21.26
17.72
13.75
9.35
4.62
-0.23
-4.94
-9.28
-13.19
-16.80
-20.41
-24.42
-29.18
-34.92
-41.61
-48.80
-55.57
-60.61
-62.61
-60.80
-55.28
-47.13
-38.01
-29.49
-22.48
-16.97
-12.33
-7.86
-3.19
1.54
5.86
9.37
12.01
13.99
15.60
17.02
18.20
18.95
19.12
18.77
18.21
17.94
18.41
19.83
22.02
24.43
26.34
27.14
26.56
24.76
22.21
19.43
16.84
14.61
12.65
10.75
8.64
6.10
3.04
-0.54
-4.49
-8.57
-12.51
-16.10
-19.36
-22.49
-25.87
-29.88
-34.78
-40.54
-46.78
-52.79
-57.63
-60.35
-60.19
-56.80
-50.40
-41.70
-31.68
-21.33
-11.40
-2.35
5.71
12.75
18.81
23.89
27.96
31.07
33.39
35.18
36.72
38.20
39.66
40.94
41.81
42.10
41.76
40.97
40.01
39.15
38.47
37.82
36.89
35.33
32.99
29.96
26.54
23.08
19.78
16.63
13.40
9.86
5.90
1.71
-2.34
-5.86
-8.64
-10.80
-12.72
-14.95
-18.02
-22.29
-27.88
-34.65
-42.11
-49.44
-55.57
-59.39
-60.02
-57.05
-50.76
-41.94
-31.74
-21.29
-11.43
-2.56
5.28
12.24
18.42
23.76
27.99
30.84
32.16
32.05
30.94
29.39
27.96
27.02
26.63
26.63
26.71
26.57
26.00
24.92
23.38
21.43
19.08
16.36
13.35
10.22
7.25
4.73
2.80
1.31
-0.09
-1.82
-4.11
-6.90
-9.89
-12.69
-15.12
-17.34
-19.80
-23.02
-27.37
-32.84
-38.98
-44.93
-49.66
-52.19
-51.86
-48.43
-42.22
-33.93
-24.44
-14.58
-5.03
3.80
11.66
18.37
23.87
28.10
31.04
32.79
33.48
33.32
32.59
31.59
30.60
29.91
29.65
29.84
30.37
31.04
31.57
31.68
31.13
29.77
27.61
24.81
21.61
18.29
15.03
11.85
8.63
5.17
1.31
-2.96
-7.48
-11.99
-16.22
-20.02
-23.47
-26.78
-30.29
-34.35
-39.25
-45.13
-51.86
-58.98
-65.64
-70.74
-73.11
-71.99
-67.18
-59.22
-49.17
-38.25
-27.48
-17.42
-8.14
0.55
8.84
16.75
24.07
30.42
35.51
39.20
41.61
42.99
43.70
44.00
44.06
43.96
43.77
43.54
43.38
43.33
43.36
43.30
42.91
41.91
40.17
37.67
34.57
31.05
27.28
23.29
19.05
14.46
9.51
4.30
-0.96
-6.03
-10.71
-14.92
-18.71
-22.25
-25.82
-29.78
-34.45
-40.06
-46.49
-53.24
-59.43
-63.97
-65.83
-64.36
-59.46
-51.61
-41.73
-30.87
-19.95
-9.58
0.06
8.96
17.22
24.79
31.47
36.95
40.93
43.28
44.14
43.91
43.13
42.32
41.81
41.74
42.00
42.37
42.64
42.58
42.09
41.11
39.63
37.71
35.46
33.03
30.57
28.18
25.85
23.40
20.57
17.13
12.96
8.18
3.09
-1.90
-6.44
-10.33
-13.56
-16.34
-19.06
-22.17
-26.12
-31.16
-37.27
-44.02
-50.62
-56.05
-59.37
-59.96
-57.68
-52.86
-46.13
-38.26
-29.93
-21.63
-13.68
-6.25
0.55
6.60
11.79
15.95
19.00
20.97
22.05
22.57
22.90
23.40
24.24
25.43
26.84
28.29
29.54
30.38
30.57
29.91
28.28
25.72
22.48
18.93
15.42
12.08
8.82
5.36
1.45
-2.86
-7.28
-11.37
-14.78
-17.46
-19.78
-22.26
-25.47
-29.75
-35.15
-41.40
-47.90
-53.80
-58.08
-59.79
-58.28
-53.52
-46.09
-37.04
-27.52
-18.45
-10.28
-3.02
3.54
9.64
15.30
20.32
24.37
27.15
28.58
28.80
28.18
27.20
26.23
25.53
25.14
24.96
24.86
24.74
24.54
24.21
23.66
22.74
21.35
19.42
17.00
14.23
11.34
8.51
5.79
3.11
0.25
-2.98
-6.65
-10.61
-14.59
-18.29
-21.63
-24.83
-28.29
-32.55
-37.86
-44.12
-50.75
-56.84
-61.36
-63.39
-62.36
-58.12
-50.96
-41.57
-30.88
-19.86
-9.29
0.38
9.03
16.78
23.73
29.82
34.83
38.45
40.49
41.08
40.59
39.56
38.49
37.70
37.27
37.11
37.08
37.08
37.08
37.06
36.97
36.62
35.85
34.44
32.30
29.45
26.01
22.14
17.98
13.58
8.92
3.91
-1.47
-7.17
-12.98
-18.67
-24.04
-29.05
-33.88
-38.84
-44.17
-49.83
-55.35
-59.87
-62.41
-62.20
-59.00
-53.12
-45.34
-36.60
-27.67
-19.01
-10.78
-2.90
4.68
11.93
18.63
24.45
29.06
32.24
34.02
34.61
34.44
33.97
33.57
33.44
33.50
33.54
33.26
32.46
31.13
29.39
27.44
25.39
23.24
20.80
17.81
14.08
9.58
4.46
-1.00
-6.54
-11.95
-17.15
-22.16
-27.04
-31.89
-36.75
-41.69
-46.69
-51.64
-56.22
-59.92
-62.08
-62.01
-59.28
-53.83
-46.15
-37.06
-27.59
-18.57
-10.49
-3.40
2.91
8.66
13.84
18.22
21.51
23.56
24.57
24.99
25.30
25.80
26.46
27.08
27.49
27.67
27.78
28.02
28.42
28.72
28.50
27.33
25.03
21.73
17.86
13.93
10.33
7.19
4.31
1.26
-2.48
-7.26
-13.21
-20.06
-27.26
-34.03
-39.53
-42.99
-43.87
-41.97
-37.53
-31.11
-23.49
-15.38
-7.27
0.61
8.15
15.24
21.57
26.71
30.21
31.89
31.88
30.66
28.87
27.08
25.64
24.63
23.91
23.26
22.51
21.57
20.41
19.01
17.29
15.15
12.43
9.03
4.90
0.11
-5.14
-10.60
-16.01
-21.10
-25.73
-29.88
-33.62
-37.12
-40.58
-44.17
-48.02
-52.15
-56.39
-60.35
-63.37
-64.67
-63.54
-59.61
-52.99
-44.27
-34.33
-24.07
-14.16
-4.96
3.48
11.24
18.37
24.81
30.37
34.79
37.88
39.56
39.95
39.30
37.95
36.29
34.68
33.43
32.78
32.81
33.46
34.42
35.25
35.47
34.69
32.84
30.08
26.72
23.13
19.56
16.10
12.73
9.35
5.89
2.30
-1.45
-5.36
-9.44
-13.76
-18.39
-23.40
-28.85
-34.62
-40.34
-45.38
-48.97
-50.44
-49.46
-46.05
-40.63
-33.80
-26.16
-18.18
-10.24
-2.60
4.53
10.99
16.65
21.44
25.34
28.29
30.31
31.47
31.92
31.92
31.72
31.60
31.73
32.20
33.05
34.15
35.31
36.21
36.51
35.98
34.60
32.53
30.13
27.72
25.43
23.09
20.34
16.79
12.29
7.04
1.57
-3.48
-7.61
-10.67
-12.93
-14.92
-17.25
-20.42
-24.70
-30.02
-35.96
-41.80
-46.57
-49.28
-49.24
-46.22
-40.56
-33.09
-24.81
-16.58
-8.94
-2.08
4.02
9.40
14.03
17.75
20.31
21.62
21.71
20.90
19.62
18.31
17.28
16.62
16.29
16.22
16.39
16.83
17.52
18.27
18.77
18.61
17.53
15.52
12.84
9.91
7.10
4.59
2.29
-0.03
-2.56
-5.32
-8.17
-10.87
-13.27
-15.43
-17.63
-20.28
-23.76
-28.22
-33.45
-38.89
-43.72
-47.03
-48.11
-46.56
-42.39
-36.01
-28.04
-19.23
-10.28
-1.78
5.86
12.35
17.53
21.38
23.89
25.14
25.32
24.65
23.45
22.08
20.86
19.96
19.43
19.18
19.07
19.04
19.06
19.19
19.42
19.60
19.44
18.60
16.81
14.11
10.83
7.46
4.51
2.19
0.41
-1.20
-3.10
-5.64
-8.88
-12.66
-16.64
-20.52
-24.11
-27.42
-30.65
-34.11
-38.12
-42.85
-48.16
-53.54
-58.16
-61.04
-61.39
-58.75
-53.22
-45.41
-36.23
-26.63
-17.37
-8.89
-1.33
5.36
11.32
16.59
21.16
24.92
27.80
29.78
30.94
31.42
31.38
30.93
30.19
29.29
28.42
27.80
27.55
27.67
27.90
27.86
27.14
25.58
23.25
20.53
17.87
15.61
13.86
12.46
11.10
9.47
7.34
4.56
1.10
-2.99
-7.50
-12.07
-16.22
-19.49
-21.68
-22.96
-23.89
-25.23
-27.64
-31.49
-36.58
-42.21
-47.29
-50.61
-51.22
-48.65
-43.10
-35.29
-26.24
-16.95
-8.17
-0.27
6.66
12.67
17.87
22.32
26.07
29.17
31.60
33.41
34.63
35.31
35.52
35.40
35.11
34.81
34.64
34.67
34.87
35.15
35.31
35.12
34.37
32.94
30.84
28.16
25.08
21.80
18.42
14.96
11.37
7.57
3.52
-0.68
-4.80
-8.53
-11.63
-14.05
-16.01
-17.98
-20.56
-24.27
-29.42
-35.97
-43.46
-51.06
-57.64
-61.96
-63.00
-60.26
-54.03
-45.26
-35.34
-25.55
-16.72
-9.08
-2.45
3.44
8.70
13.15
16.55
18.77
19.94
20.39
20.51
20.56
20.71
20.98
21.40
21.96
22.63
23.34
23.94
24.24
24.10
23.43
22.21
20.49
18.34
15.86
13.13
10.18
7.03
3.62
-0.10
-4.11
-8.31
-12.51
-16.57
-20.47
-24.41
-28.75
-33.84
-39.84
-46.50
-53.13
-58.75
-62.26
-62.83
-60.16
-54.52
-46.72
-37.77
-28.68
-20.13
-12.48
-5.77
0.11
5.28
9.77
13.52
16.38
18.23
19.04
18.92
18.17
17.19
16.34
15.90
15.99
16.52
17.36
18.27
19.01
19.39
19.27
18.62
17.50
16.06
14.40
12.58
10.54
8.15
5.32
2.11
-1.31
-4.66
-7.71
-10.35
-12.69
-14.99
-17.67
-21.12
-25.60
-31.14
-37.46
-43.91
-49.56
-53.32
-54.21
-51.72
-45.93
-37.63
-27.98
-18.22
-9.23
-1.37
5.42
11.36
16.55
20.93
24.20
26.18
26.86
26.49
25.50
24.31
23.26
22.58
22.38
22.74
23.64
24.95
26.42
27.73
28.58
28.74
28.15
26.83
24.85
22.32
19.34
15.98
12.32
8.40
4.27
-0.05
-4.45
-8.72
-12.59
-15.89
-18.71
-21.37
-24.42
-28.31
-33.26
-39.04
-45.01
-50.27
-53.89
-55.10
-53.56
-49.34
-42.91
-34.97
-26.28
-17.46
-8.94
-0.96
6.34
12.87
18.51
23.15
26.76
29.34
31.00
31.92
32.33
32.48
32.57
32.76
33.10
33.54
33.98
34.30
34.42
34.25
33.74
32.82
31.46
29.66
27.48
24.97
22.19
19.10
15.59
11.57
6.95
1.74
-3.96
-10.01
-16.26
-22.61
-29.01
-35.43
-41.74
-47.62
-52.57
-55.89
-56.88
-55.05
-50.26
-42.89
-33.69
-23.60
-13.47
-3.91
4.77
12.42
18.95
24.20
28.05
30.54
31.99
32.96
34.12
36.03
38.92
42.65
46.86
51.13
55.12
58.64
61.54
63.62
64.56
64.03
61.76
57.74
52.19
45.55
38.34
31.03
23.89
17.04
10.36
3.60
-3.53
-11.29
-19.66
-28.30
-36.56
-43.54
-48.40
-50.60
-49.99
-46.90
-41.96
-35.98
-29.71
-23.74
-18.40
-13.77
-9.76
-6.24
-3.18
-0.71
0.97
1.67
1.42
0.52
-0.47
-0.98
-0.56
0.94
3.37
6.34
9.40
12.15
14.32
15.79
16.46
16.25
15.08
12.85
9.61
5.58
1.13
-3.28
-7.26
-10.61
-13.40
-15.88
-18.36
-21.16
-24.48
-28.44
-33.02
-38.03
-43.07
-47.52
-50.60
-51.56
-49.86
-45.32
-38.19
-29.02
-18.65
-7.97
2.21
11.26
18.84
24.89
29.55
33.00
35.41
36.86
37.40
37.17
36.39
35.43
34.64
34.25
34.31
34.64
34.95
34.94
34.43
33.36
31.87
30.17
28.46
26.73
24.82
22.43
19.31
15.41
10.92
6.25
1.80
-2.16
-5.62
-8.82
-12.09
-15.74
-19.94
-24.76
-30.14
-35.92
-41.83
-47.39
-51.88
-54.47
-54.39
-51.22
-45.11
-36.72
-27.08
-17.15
-7.66
1.04
8.87
15.76
21.56
25.93
28.63
29.65
29.33
28.27
27.12
26.31
25.95
25.91
26.00
26.13
26.38
26.88
27.66
28.51
29.06
28.95
28.04
26.49
24.71
23.10
21.89
21.04
20.28
19.32
17.93
16.00
13.52
10.56
7.30
4.02
0.99
-1.68
-4.18
-7.05
-11.03
-16.75
-24.41
-33.65
-43.56
-52.91
-60.47
-65.25
-66.71
-64.82
-59.96
-52.85
-44.37
-35.32
-26.39
-18.04
-10.58
-4.29
0.63
4.05
6.09
7.20
8.16
9.80
12.83
17.49
23.46
29.97
36.04
40.76
43.52
44.08
42.45
38.93
33.92
27.92
21.44
14.94
8.80
3.26
-1.53
-5.48
-8.52
-10.68
-12.12
-13.16
-14.25
-15.84
-18.24
-21.44
-25.18
-28.94
-32.09
-34.05
-34.26
-32.44
-28.47
-22.54
-15.08
-6.76
1.73
9.79
17.00
23.23
28.48
32.80
36.15
38.46
39.60
39.58
38.55
36.87
34.90
32.90
30.98
29.12
27.28
25.48
23.78
22.28
20.92
19.59
18.07
16.21
13.94
11.35
8.52
5.51
2.29
-1.20
-4.92
-8.78
-12.60
-16.19
-19.46
-22.45
-25.27
-28.11
-31.21
-34.80
-39.01
-43.81
-48.83
-53.35
-56.45
-57.28
-55.32
-50.63
-43.83
-35.87
-27.73
-20.12
-13.36
-7.50
-2.38
2.16
6.16
9.60
12.41
14.57
16.13
17.22
17.96
18.48
18.86
19.15
19.43
19.85
20.53
21.50
22.64
23.62
24.10
23.76
22.47
20.33
17.63
14.68
11.73
8.87
6.04
3.09
-0.08
-3.47
-6.94
-10.25
-13.13
-15.41
-17.07
-18.35
-19.68
-21.66
-24.75
-29.15
-34.55
-40.23
-45.13
-48.21
-48.72
-46.42
-41.56
-34.75
-26.79
-18.46
-10.40
-3.08
3.20
8.36
12.40
15.39
17.46
18.74
19.38
19.57
19.49
19.21
18.70
17.82
16.47
14.80
13.29
12.72
13.88
17.16
22.37
28.60
34.60
39.16
41.53
41.56
39.60
36.22
31.91
26.87
21.09
14.51
7.20
-0.53
-8.13
-14.95
-20.44
-24.33
-26.72
-28.13
-29.33
-31.12
-34.06
-38.26
-43.33
-48.42
-52.45
-54.46
-53.83
-50.47
-44.73
-37.35
-29.12
-20.75
-12.77
-5.52
0.85
6.29
10.81
14.50
17.48
19.85
21.71
23.11
24.01
24.36
24.04
22.96
21.18
18.95
16.71
14.94
14.03
14.04
14.69
15.49
15.92
15.66
14.67
13.07
11.02
8.61
5.83
2.69
-0.73
-4.23
-7.57
-10.62
-13.42
-16.25
-19.47
-23.41
-28.18
-33.51
-38.77
-43.08
-45.51
-45.41
-42.61
-37.39
-30.37
-22.24
-13.61
-4.87
3.58
11.42
18.21
23.55
27.08
28.64
28.23
26.08
22.62
18.34
13.83
9.61
6.11
3.60
2.21
1.96
2.74
4.32
6.32
8.27
9.72
10.37
10.13
9.12
7.55
5.58
3.28
0.62
-2.36
-5.59
-8.83
-11.80
-14.32
-16.37
-18.17
-20.10
-22.63
-26.11
-30.74
-36.50
-43.17
-50.26
-57.03
-62.51
-65.64
-65.62
-62.13
-55.51
-46.64
-36.64
-26.54
-16.98
-8.24
-0.32
6.82
13.14
18.46
22.67
25.74
27.81
29.17
30.12
30.86
31.42
31.68
31.42
30.55
29.19
27.67
26.43
25.83
25.97
26.64
27.38
27.65
27.05
25.44
22.93
19.81
16.37
12.79
9.16
5.54
2.01
-1.30
-4.33
-7.03
-9.55
-12.06
-14.78
-17.88
-21.50
-25.72
-30.57
-36.01
-41.76
-47.32
-51.90
-54.63
-54.76
-51.95
-46.33
-38.54
-29.47
-19.97
-10.70
-2.01
5.93
13.00
19.00
23.63
26.70
28.27
28.68
28.50
28.28
28.34
28.72
29.23
29.63
29.77
29.72
29.63
29.73
30.11
30.69
31.28
31.62
31.45
30.66
29.24
27.33
25.11
22.74
20.30
17.83
15.23
12.40
9.27
5.84
2.24
-1.35
-4.75
-7.89
-10.90
-14.10
-17.88
-22.56
-28.16
-34.31
-40.18
-44.73
-46.95
-46.15
-42.22
-35.64
-27.34
-18.43
-9.88
-2.24
4.37
10.09
15.16
19.69
23.61
26.73
28.92
30.17
30.73
30.88
30.93
31.03
31.15
31.22
31.09
30.77
30.29
29.77
29.23
28.56
27.53
25.92
23.57
20.50
16.89
12.96
8.87
4.71
0.51
-3.62
-7.54
-11.07
-14.19
-17.06
-20.06
-23.65
-28.19
-33.75
-40.11
-46.80
-53.15
-58.46
-62.02
-63.20
-61.56
-57.03
-49.94
-41.04
-31.31
-21.67
-12.84
-5.16
1.32
6.73
11.28
15.11
18.25
20.63
22.19
22.94
23.08
22.94
22.91
23.23
23.96
24.92
25.93
26.84
27.68
28.49
29.22
29.61
29.31
28.09
25.93
23.18
20.26
17.47
14.87
12.22
9.22
5.64
1.50
-3.03
-7.65
-12.07
-16.10
-19.70
-23.00
-26.29
-29.94
-34.30
-39.53
-45.39
-51.32
-56.45
-59.78
-60.46
-57.97
-52.25
-43.71
-33.16
-21.60
-10.11
0.44
9.52
16.92
22.73
27.20
30.57
33.01
34.67
35.65
36.16
36.44
36.68
37.02
37.40
37.70
37.83
37.77
37.56
37.22
36.67
35.69
33.98
31.33
27.73
23.41
18.87
14.60
11.01
8.21
6.00
4.00
1.74
-1.07
-4.41
-8.03
-11.46
-14.32
-16.44
-18.03
-19.60
-21.82
-25.23
-30.03
-35.91
-42.02
-47.23
-50.38
-50.62
-47.51
-41.17
-32.17
-21.39
-9.83
1.49
11.78
20.54
27.56
32.91
36.82
39.56
41.36
42.41
42.89
42.96
42.72
42.28
41.63
40.80
39.85
38.85
37.92
37.10
36.39
35.76
35.07
34.14
32.75
30.62
27.61
23.76
19.34
14.73
10.27
6.11
2.17
-1.70
-5.63
-9.55
-13.31
-16.77
-19.96
-23.07
-26.39
-30.16
-34.47
-39.21
-44.04
-48.38
-51.45
-52.40
-50.54
-45.66
-38.19
-29.09
-19.59
-10.74
-3.10
3.25
8.51
12.85
16.21
18.43
19.40
19.24
18.37
17.29
16.37
15.75
15.33
14.94
14.46
13.95
13.52
13.26
13.13
12.95
12.47
11.51
9.97
7.94
5.54
2.95
0.30
-2.38
-5.12
-7.99
-11.02
-14.20
-17.33
-20.16
-22.49
-24.27
-25.78
-27.52
-30.15
-34.11
-39.48
-45.82
-52.28
-57.79
-61.36
-62.25
-60.12
-55.03
-47.42
-38.02
-27.73
-17.41
-7.74
0.88
8.30
14.59
19.83
24.06
27.29
29.50
30.80
31.36
31.42
31.18
30.80
30.37
29.96
29.60
29.36
29.26
29.29
29.32
29.14
28.49
27.14
24.95
21.93
18.32
14.45
10.74
7.49
4.84
2.65
0.71
-1.23
-3.28
-5.41
-7.55
-9.68
-11.94
-14.52
-17.66
-21.50
-26.05
-31.15
-36.52
-41.69
-46.01
-48.69
-49.01
-46.56
-41.44
-34.28
-25.99
-17.44
-9.17
-1.38
5.93
12.71
18.76
23.67
27.09
28.90
29.26
28.63
27.54
26.49
25.78
25.52
25.66
26.03
26.49
26.86
27.04
26.99
26.63
25.91
24.83
23.39
21.69
19.81
17.87
15.87
13.75
11.33
8.36
4.67
0.21
-4.79
-9.83
-14.39
-17.98
-20.46
-21.97
-22.92
-23.84
-25.17
-27.24
-30.18
-33.86
-37.77
-41.05
-42.55
-41.23
-36.49
-28.52
-18.24
-7.04
3.78
13.32
21.25
27.61
32.54
36.12
38.34
39.21
38.98
38.04
36.81
35.58
34.42
33.27
32.08
31.01
30.35
30.38
31.17
32.46
33.70
34.28
33.85
32.37
30.13
27.58
25.09
22.82
20.66
18.34
15.51
11.94
7.57
2.60
-2.45
-6.94
-10.33
-12.47
-13.92
-15.86
-19.70
-26.49
-36.40
-48.41
-60.68
-71.04
-77.85
-80.41
-79.21
-75.61
-71.23
-67.40
-64.72
-63.20
-62.60
-62.89
-64.47
-67.93
-73.59
-81.12
-89.40
-96.90
-102.24
-104.60
-103.79
-99.99
-93.27
-83.41
-70.02
-52.99
-32.94
-11.37
9.62
27.92
42.14
51.94
58.01
61.64
64.09
66.16
67.96
69.15
69.20
67.56
63.77
57.52
48.81
38.24
26.95
16.52
8.37
3.22
0.88
0.41
0.75
1.33
2.34
4.59
9.01
16.03
25.35
35.93
46.37
55.32
61.81
65.34
65.82
63.53
58.99
53.04
46.76
41.42
38.13
37.44
39.02
41.55
43.18
42.33
38.45
32.32
25.69
20.46
17.80
17.71
19.25
21.25
22.92
24.09
24.83
25.03
24.07
21.08
15.61
8.11
0.01
-6.88
-11.13
-12.39
-11.42
-9.70
-8.73
-9.42
-11.93
-15.80
-20.29
-24.69
-28.34
-30.64
-31.02
-29.08
-24.73
-18.32
-10.66
-2.72
4.71
11.24
16.90
21.97
26.62
30.75
34.04
36.10
36.77
36.13
34.45
31.94
28.59
24.22
18.68
12.03
4.77
-2.25
-8.05
-11.80
-13.11
-12.17
-9.66
-6.53
-3.71
-1.86
-1.26
-1.88
-3.57
-6.23
-9.90
-14.67
-20.60
-27.49
-34.96
-42.43
-49.34
-55.24
-59.89
-63.14
-64.80
-64.62
-62.25
-57.48
-50.35
-41.35
-31.23
-20.94
-11.33
-3.06
3.41
7.75
9.75
9.38
6.93
3.18
-0.80
-3.79
-4.93
-3.98
-1.44
1.75
4.56
6.33
6.90
6.62
6.09
5.87
6.30
7.39
8.85
10.21
10.90
10.37
8.31
4.71
-0.01
-5.14
-9.82
-13.40
-15.58
-16.49
-16.63
-16.66
-17.31
-19.17
-22.57
-27.47
-33.43
-39.63
-45.05
-48.66
-49.71
-47.86
-43.25
-36.39
-28.03
-18.99
-9.98
-1.55
6.01
12.55
18.06
22.57
26.04
28.34
29.32
28.90
27.20
24.61
21.66
18.93
16.81
15.43
14.68
14.34
14.24
14.34
14.65
15.16
15.78
16.31
16.52
16.25
15.41
13.99
12.01
9.48
6.42
2.95
-0.73
-4.41
-7.91
-11.16
-14.17
-16.98
-19.70
-22.46
-25.41
-28.72
-32.45
-36.34
-39.86
-42.13
-42.27
-39.67
-34.28
-26.62
-17.63
-8.36
0.29
7.69
13.57
17.87
20.72
22.38
23.25
23.83
24.49
25.42
26.53
27.52
28.04
27.92
27.23
26.26
25.38
25.02
25.63
27.60
31.16
36.17
41.97
47.43
51.22
52.32
50.37
45.79
39.55
32.69
25.90
19.42
13.17
7.00
0.95
-4.75
-9.84
-14.23
-18.16
-22.05
-26.35
-31.34
-36.94
-42.79
-48.21
-52.43
-54.74
-54.56
-51.64
-46.08
-38.33
-29.15
-19.41
-10.00
-1.62
5.20
10.22
13.48
15.24
15.95
16.08
16.01
15.96
15.93
15.80
15.46
14.89
14.25
13.81
13.86
14.54
15.75
17.14
18.17
18.33
17.23
14.80
11.29
7.25
3.24
-0.31
-3.30
-5.86
-8.25
-10.58
-12.82
-14.74
-16.12
-16.90
-17.26
-17.57
-18.28
-19.82
-22.52
-26.62
-32.12
-38.70
-45.58
-51.59
-55.41
-55.99
-52.89
-46.42
-37.51
-27.37
-17.14
-7.61
0.81
8.07
14.20
19.25
23.15
25.78
27.07
27.10
26.13
24.58
22.95
21.62
20.79
20.45
20.46
20.64
20.81
20.89
20.77
20.33
19.45
18.01
16.03
13.65
11.20
8.98
7.20
5.84
4.62
3.19
1.27
-1.13
-3.76
-6.20
-8.12
-9.49
-10.61
-12.00
-14.15
-17.29
-21.32
-25.93
-30.73
-35.38
-39.60
-43.07
-45.34
-45.82
-44.02
-39.65
-32.91
-24.45
-15.27
-6.35
1.60
8.25
13.60
17.82
21.02
23.22
24.42
24.73
24.42
23.88
23.51
23.51
23.81
24.20
24.47
24.60
24.71
25.04
25.66
26.50
27.28
27.74
27.74
27.31
26.62
25.80
24.92
23.91
22.65
21.03
19.03
16.66
13.99
11.16
8.32
5.67
3.33
1.22
-0.97
-3.68
-7.29
-11.92
-17.43
-23.41
-29.39
-34.94
-39.72
-43.38
-45.53
-45.69
-43.43
-38.52
-31.12
-21.92
-12.03
-2.79
4.68
9.79
12.72
14.22
15.24
16.42
17.89
19.29
20.09
19.86
18.49
16.10
12.93
9.27
5.52
2.25
0.08
-0.45
0.77
3.25
5.91
7.44
6.59
2.65
-4.42
-13.94
-24.73
-35.36
-44.57
-51.49
-55.94
-58.36
-59.61
-60.57
-61.81
-63.31
-64.51
-64.49
-62.38
-57.69
-50.52
-41.54
-31.82
-22.42
-14.05
-6.92
-0.74
5.05
11.01
17.50
24.54
31.89
39.08
45.50
50.43
53.31
53.90
52.51
50.05
47.65
46.21
45.96
46.43
46.74
46.23
44.66
42.29
39.49
36.41
32.99
29.25
25.51
22.36
20.38
19.64
19.56
19.15
17.48
14.13
9.22
3.19
-3.43
-10.18
-16.52
-21.75
-25.21
-26.55
-26.05
-24.61
-23.31
-22.89
-23.39
-24.25
-24.63
-23.85
-21.61
-17.94
-13.01
-6.94
0.23
8.42
17.35
26.50
35.15
42.52
47.97
51.15
52.09
51.09
48.65
45.27
41.30
36.99
32.48
27.93
23.53
19.44
15.70
12.21
8.80
5.31
1.76
-1.65
-4.63
-6.93
-8.51
-9.56
-10.45
-11.49
-12.87
-14.57
-16.57
-18.92
-21.84
-25.63
-30.48
-36.35
-42.91
-49.71
-56.36
-62.67
-68.51
-73.58
-77.29
-78.70
-76.92
-71.47
-62.64
-51.49
-39.54
-28.22
-18.45
-10.39
-3.60
2.63
8.82
15.06
20.98
25.99
29.56
31.47
31.96
31.55
30.80
30.07
29.39
28.62
27.59
26.40
25.38
24.90
25.10
25.74
26.22
25.87
24.33
21.67
18.43
15.36
13.20
12.42
13.21
15.45
18.74
22.46
25.67
27.30
26.27
21.84
13.85
2.95
-9.47
-21.59
-31.58
-38.11
-40.53
-39.00
-34.32
-27.64
-20.19
-13.06
-6.99
-2.30
1.11
3.63
5.73
7.82
10.09
12.53
15.00
17.22
18.85
19.42
18.56
16.09
12.26
7.81
3.85
1.44
1.24
3.16
6.39
9.69
11.85
12.05
10.07
6.12
0.66
-5.78
-12.63
-19.24
-24.87
-28.88
-31.00
-31.55
-31.38
-31.44
-32.41
-34.34
-36.86
-39.52
-42.16
-45.05
-48.46
-52.28
-55.73
-57.46
-56.18
-51.17
-42.73
-32.05
-20.70
-10.04
-0.77
7.09
13.97
20.31
26.25
31.53
35.67
38.26
39.16
38.60
37.18
35.62
34.58
34.45
35.23
36.59
38.09
39.42
40.51
41.49
42.48
43.34
43.76
43.32
41.82
39.41
36.50
33.51
30.64
27.74
24.51
20.67
16.19
11.44
6.95
3.36
1.12
0.30
0.45
0.61
-0.49
-4.04
-10.69
-20.33
-32.04
-44.39
-55.80
-64.84
-70.41
-71.79
-68.67
-61.27
-50.43
-37.48
-24.08
-11.79
-1.69
5.76
10.73
13.73
15.38
16.19
16.55
16.69
16.77
16.95
17.37
18.15
19.32
20.83
22.53
24.20
25.65
26.73
27.47
27.94
28.27
28.52
28.63
28.43
27.66
26.12
23.70
20.53
16.96
13.50
10.71
8.92
8.13
7.95
7.75
6.90
4.99
1.94
-1.97
-6.24
-10.14
-12.90
-13.74
-12.11
-7.92
-1.65
5.67
12.87
18.98
23.69
27.30
30.49
33.91
37.75
41.78
45.48
48.35
50.16
50.84
50.35
48.49
45.00
39.72
32.83
24.88
16.66
8.91
2.03
-3.93
-9.17
-13.87
-18.00
-21.25
-23.16
-23.41
-22.01
-19.53
-16.90
-15.22
-15.33
-17.62
-21.96
-27.89
-34.90
-42.49
-50.30
-57.93
-64.96
-70.97
-75.70
-79.10
-81.25
-82.17
-81.70
-79.59
-75.61
-69.87
-62.85
-55.19
-47.52
-40.14
-32.97
-25.69
-18.06
-10.08
-2.04
5.48
11.95
17.00
20.57
22.90
24.35
25.26
25.84
26.16
26.16
25.84
25.27
24.60
24.00
23.49
22.93
22.14
20.93
19.32
17.62
16.20
15.47
15.58
16.39
17.54
18.66
19.47
19.84
19.75
19.11
17.70
15.26
11.63
6.96
1.58
-4.13
-10.08
-16.49
-23.80
-32.24
-41.46
-50.49
-57.94
-62.47
-63.33
-60.52
-54.68
-46.83
-37.97
-29.03
-20.67
-13.38
-7.43
-2.85
0.59
3.27
5.57
7.79
10.03
12.31
14.59
16.89
19.19
21.48
23.67
25.64
27.25
28.38
28.94
28.80
27.85
26.06
23.58
20.75
18.01
15.73
14.01
12.66
11.29
9.57
7.33
4.59
1.49
-1.86
-5.42
-9.26
-13.44
-17.96
-22.62
-27.05
-30.72
-32.98
-33.25
-31.18
-26.89
-20.92
-14.10
-7.24
-0.85
4.97
10.39
15.56
20.46
24.80
28.17
30.29
31.13
30.89
29.89
28.42
26.69
24.95
23.55
22.95
23.49
25.16
27.45
29.51
30.45
29.86
27.97
25.58
23.76
23.34
24.55
26.90
29.36
30.68
29.79
26.25
20.32
13.00
5.62
-0.52
-4.58
-6.44
-6.67
-6.40
-6.96
-9.48
-14.52
-21.89
-30.65
-39.36
-46.52
-51.00
-52.35
-50.87
-47.33
-42.63
-37.43
-32.00
-26.26
-20.00
-13.19
-6.14
0.47
5.69
8.58
8.52
5.44
-0.05
-6.72
-13.07
-17.69
-19.67
-18.89
-15.90
-11.70
-7.42
-4.09
-2.39
-2.68
-4.94
-8.80
-13.56
-18.43
-22.69
-25.99
-28.36
-30.16
-31.83
-33.67
-35.71
-37.83
-39.90
-41.91
-44.07
-46.74
-50.23
-54.61
-59.43
-63.83
-66.70
-67.06
-64.43
-59.06
-51.72
-43.37
-34.75
-26.16
-17.54
-8.71
0.36
9.43
18.09
25.91
32.63
38.24
42.85
46.61
49.64
52.02
53.85
55.32
56.75
58.49
60.76
63.57
66.60
69.35
71.27
71.99
71.39
69.63
67.02
63.89
60.47
56.87
53.15
49.26
44.99
39.93
33.56
25.48
15.69
4.82
-6.06
-15.75
-23.47
-29.19
-33.59
-37.63
-42.03
-46.89
-51.59
-55.16
-56.72
-55.82
-52.55
-47.36
-40.75
-33.09
-24.61
-15.46
-6.00
3.17
11.34
17.86
22.31
24.72
25.37
24.78
23.50
22.05
20.86
20.20
20.17
20.70
21.59
22.66
23.75
24.82
25.78
26.48
26.63
25.94
24.21
21.41
17.70
13.31
8.54
3.67
-1.00
-5.17
-8.66
-11.45
-13.75
-15.91
-18.33
-21.26
-24.80
-28.80
-32.99
-37.00
-40.40
-42.78
-43.73
-42.94
-40.24
-35.67
-29.46
-22.00
-13.78
-5.30
3.00
10.72
17.59
23.43
28.19
31.85
34.46
36.07
36.80
36.80
36.35
35.77
35.32
35.07
34.85
34.32
33.12
31.11
28.45
25.52
22.70
20.12
17.62
14.88
11.68
8.06
4.32
0.84
-2.17
-4.75
-7.23
-10.00
-13.26
-16.93
-20.66
-24.05
-26.79
-28.89
-30.58
-32.24
-34.18
-36.53
-39.19
-41.80
-43.88
-44.81
-44.01
-40.99
-35.56
-27.97
-18.81
-8.94
0.86
10.05
18.46
26.16
33.21
39.51
44.70
48.34
50.01
49.55
47.21
43.54
39.32
35.38
32.33
30.48
29.79
29.89
30.28
30.44
30.05
28.98
27.31
25.11
22.45
19.34
15.87
12.27
9.03
6.70
5.73
6.14
7.52
9.04
9.89
9.51
7.83
5.22
2.15
-0.97
-3.91
-6.49
-8.43
-9.44
-9.27
-7.96
-5.92
-3.79
-2.20
-1.54
-1.79
-2.57
-3.46
-4.19
-4.83
-5.70
-7.21
-9.59
-12.78
-16.42
-20.04
-23.27
-25.92
-27.97
-29.45
-30.29
-30.29
-29.32
-27.48
-25.21
-23.24
-22.34
-23.05
-25.48
-29.31
-33.84
-38.14
-41.30
-42.75
-42.35
-40.41
-37.50
-34.24
-31.16
-28.69
-27.10
-26.60
-27.14
-28.40
-29.65
-30.03
-28.88
-26.14
-22.50
-19.23
-17.68
-18.73
-22.39
-27.76
-33.30
-37.17
-37.79
-34.26
-26.55
-15.59
-2.88
9.91
21.48
31.26
39.42
46.63
53.63
60.88
68.27
75.27
80.99
84.50
85.11
82.55
77.02
69.23
60.14
50.82
42.22
34.96
29.37
25.42
22.86
21.35
20.54
20.26
20.48
21.19
22.22
23.09
23.13
21.75
18.80
14.77
10.58
7.25
5.41
4.98
5.23
5.08
3.50
-0.16
-5.93
-13.22
-20.90
-27.63
-32.31
-34.44
-34.46
-33.59
-33.43
-35.31
-39.71
-46.05
-52.90
-58.55
-61.60
-61.35
-57.87
-51.75
-43.68
-34.24
-23.82
-12.89
-2.19
7.20
14.06
17.64
17.93
15.85
12.90
10.59
9.78
10.46
11.86
12.97
13.05
11.89
9.70
6.84
3.58
0.03
-3.71
-7.40
-10.65
-13.03
-14.27
-14.40
-13.63
-12.27
-10.61
-8.90
-7.47
-6.74
-7.11
-8.71
-11.33
-14.41
-17.41
-20.07
-22.52
-25.10
-27.98
-30.87
-33.03
-33.57
-31.82
-27.59
-21.04
-12.53
-2.44
8.80
20.52
31.70
41.03
47.30
49.89
49.06
45.89
41.80
37.98
35.03
32.87
31.10
29.34
27.45
25.40
23.15
20.57
17.46
13.82
9.91
6.13
2.80
-0.05
-2.68
-5.46
-8.58
-11.90
-15.04
-17.61
-19.42
-20.55
-21.28
-21.93
-22.78
-24.04
-25.80
-28.08
-30.71
-33.38
-35.68
-37.33
-38.28
-38.78
-39.22
-39.88
-40.64
-40.89
-39.73
-36.30
-30.30
-22.13
-12.85
-3.77
4.02
9.91
13.82
16.06
17.09
17.41
17.58
18.15
19.62
22.25
25.94
30.18
34.22
37.44
39.48
40.43
40.63
40.47
40.23
39.97
39.61
39.04
38.25
37.21
35.84
34.00
31.48
28.12
23.94
19.11
13.88
8.49
3.04
-2.48
-8.05
-13.59
-18.81
-23.41
-27.21
-30.29
-33.04
-35.89
-39.23
-43.13
-47.43
-51.71
-55.46
-58.08
-58.92
-57.34
-52.77
-45.04
-34.44
-21.79
-8.18
5.38
18.24
30.08
40.78
50.16
57.85
63.40
66.61
67.75
67.60
67.22
67.54
68.99
71.37
73.93
75.68
75.78
73.86
70.11
65.18
59.93
55.07
50.99
47.62
44.59
41.27
36.94
30.91
22.73
12.44
0.76
-11.04
-21.57
-29.80
-35.59
-39.69
-43.27
-47.36
-52.32
-57.74
-62.97
-67.53
-71.46
-75.18
-79.08
-83.02
-86.26
-87.76
-86.68
-82.82
-76.78
-69.64
-62.44
-55.75
-49.45
-43.01
-35.78
-27.38
-17.93
-7.92
1.88
10.64
17.54
21.94
23.55
22.60
19.90
16.62
13.98
12.67
12.69
13.45
14.08
14.00
13.10
11.80
10.65
10.07
10.08
10.38
10.55
10.30
9.55
8.41
6.95
5.14
2.68
-0.98
-6.44
-14.09
-23.79
-34.71
-45.34
-53.92
-58.87
-59.26
-55.15
-47.45
-37.57
-26.99
-16.79
-7.56
0.55
7.70
14.03
19.60
24.31
27.99
30.45
31.65
31.66
30.76
29.30
27.68
26.23
25.20
24.73
24.83
25.40
26.22
27.03
27.58
27.63
27.02
25.55
23.04
19.34
14.42
8.52
2.11
-4.17
-9.77
-14.34
-17.93
-20.85
-23.59
-26.69
-30.59
-35.65
-42.10
-49.90
-58.63
-67.27
-74.43
-78.66
-78.96
-75.19
-68.06
-58.74
-48.22
-36.94
-24.77
-11.48
2.74
17.06
30.12
40.49
47.26
50.28
50.16
48.01
45.17
42.94
42.44
44.37
48.84
55.14
61.83
66.96
68.76
66.32
60.25
52.72
46.90
45.78
50.76
60.92
73.19
83.61
88.92
87.81
81.24
71.53
61.11
51.31
42.18
32.74
21.94
9.18
-5.52
-21.59
-38.10
-53.74
-66.82
-75.51
-78.39
-75.13
-66.83
-55.75
-44.50
-35.14
-28.57
-24.68
-22.94
-23.00
-24.79
-28.28
-33.01
-37.86
-41.37
-42.35
-40.43
-36.20
-30.95
-26.13
-22.82
-21.38
-21.33
-21.55
-20.71
-17.81
-12.79
-6.57
-0.83
2.83
3.59
1.73
-1.67
-5.47
-9.11
-12.86
-17.51
-23.77
-31.72
-40.79
-49.87
-57.66
-62.85
-64.29
-61.10
-52.95
-40.32
-24.66
-8.22
6.58
17.79
24.51
27.14
27.02
25.90
25.28
25.92
27.84
30.59
33.68
36.97
40.69
45.23
50.88
57.58
65.02
72.72
80.21
86.96
92.36
95.54
95.52
91.51
83.18
70.86
55.59
38.86
22.35
7.57
-4.56
-13.95
-21.39
-28.24
-35.94
-45.40
-56.53
-68.32
-79.20
-87.56
-92.29
-92.97
-89.86
-83.62
-75.15
-65.35
-55.03
-44.72
-34.65
-24.68
-14.57
-4.09
6.72
17.54
27.80
36.87
44.29
49.85
53.62
55.82
56.73
56.57
55.42
53.34
50.39
46.74
42.65
38.38
34.08
29.75
25.23
20.37
15.14
9.69
4.24
-1.03
-6.18
-11.51
-17.43
-24.20
-31.70
-39.37
-46.38
-51.92
-55.48
-57.01
-56.79
-55.22
-52.41
-48.13
-41.89
-33.17
-21.79
-8.10
7.11
22.73
37.67
50.90
61.44
68.50
71.64
71.12
68.13
64.65
62.85
64.27
69.24
76.75
84.97
92.07
96.86
98.93
98.42
95.66
90.97
84.72
77.50
70.06
63.07
56.68
50.44
43.54
35.31
25.60
14.84
3.74
-7.13
-17.60
-27.80
-38.02
-48.47
-59.34
-70.69
-82.47
-94.29
-105.32
-114.30
-119.98
-121.56
-119.06
-113.23
-105.23
-96.06
-86.36
-76.44
-66.46
-56.73
-47.64
-39.62
-33.01
-27.98
-24.49
-22.24
-20.67
-18.93
-16.13
-11.53
-4.89
3.41
12.44
21.06
28.30
33.58
36.78
38.08
37.79
36.25
33.77
30.67
27.26
23.77
20.25
16.60
12.62
8.23
3.50
-1.26
-5.70
-9.55
-12.83
-15.77
-18.78
-22.29
-26.53
-31.48
-36.67
-41.19
-43.90
-43.83
-40.64
-34.89
-27.90
-21.18
-15.90
-12.41
-10.33
-8.85
-7.18
-4.78
-1.37
3.20
8.93
15.61
22.69
29.34
34.68
38.20
40.05
40.98
42.07
44.19
47.64
51.96
55.97
58.21
57.49
53.29
46.13
37.34
28.63
21.38
16.18
12.65
9.78
6.39
1.69
-4.54
-12.01
-20.29
-28.95
-37.67
-46.09
-53.71
-60.04
-64.73
-67.77
-69.65
-70.99
-72.23
-73.30
-73.55
-72.09
-68.23
-61.87
-53.53
-44.15
-34.68
-25.73
-17.52
-10.00
-2.95
3.77
10.24
16.45
22.40
28.14
33.76
39.36
44.91
50.27
55.13
59.22
62.40
64.77
66.67
68.53
70.60
72.84
74.88
76.18
76.23
74.72
71.65
67.33
62.38
57.59
53.70
51.15
49.89
49.41
48.90
47.73
45.64
42.91
40.18
38.03
36.69
35.65
33.58
28.45
18.01
0.53
-24.08
-53.59
-83.61
-108.70
-124.27
-128.22
-121.70
-108.42
-93.10
-79.78
-70.74
-66.41
-65.93
-67.88
-70.65
-72.67
-72.48
-69.02
-61.89
-51.47
-38.88
-25.61
-13.12
-2.65
5.07
9.77
11.76
11.86
11.11
10.60
11.03
12.54
14.71
16.86
18.32
18.76
18.21
17.05
15.74
14.55
13.52
12.40
10.82
8.53
5.59
2.36
-0.64
-3.01
-4.63
-5.70
-6.71
-8.13
-10.31
-13.37
-17.16
-21.49
-26.02
-30.37
-34.00
-36.24
-36.49
-34.39
-30.05
-23.98
-17.04
-10.03
-3.50
2.33
7.53
12.24
16.54
20.38
23.60
26.02
27.55
28.16
27.97
27.18
26.03
24.79
23.67
22.81
22.27
22.01
21.89
21.68
21.14
20.00
18.13
15.54
12.35
8.76
5.03
1.36
-2.04
-5.03
-7.62
-9.99
-12.49
-15.48
-19.07
-23.06
-26.91
-30.08
-32.31
-33.93
-35.73
-38.64
-43.27
-49.50
-56.50
-62.91
-67.31
-68.56
-65.95
-59.28
-48.80
-35.25
-19.76
-3.75
11.49
25.08
36.85
47.23
56.81
65.98
74.54
81.85
87.10
89.76
89.70
87.20
82.71
76.78
69.99
62.96
56.34
50.68
46.28
43.09
40.76
38.85
36.91
34.59
31.69
28.14
24.05
19.77
15.76
12.43
9.94
8.07
6.26
3.87
0.44
-4.07
-9.34
-14.84
-20.06
-24.79
-29.15
-33.65
-39.02
-45.89
-54.43
-64.14
-73.76
-81.59
-86.05
-86.44
-83.22
-77.90
-72.43
-68.27
-65.80
-64.17
-61.80
-57.16
-49.47
-39.10
-27.30
-15.78
-6.04
1.03
5.33
7.41
8.22
8.76
9.80
11.77
14.67
18.23
22.01
25.50
28.13
29.34
28.77
26.38
22.62
18.31
14.38
11.53
9.92
9.17
8.54
7.35
5.10
1.69
-2.83
-8.24
-14.16
-20.04
-25.18
-28.91
-31.00
-31.84
-32.29
-33.32
-35.43
-38.48
-41.84
-44.88
-47.39
-49.56
-51.61
-53.35
-53.97
-52.44
-48.06
-41.03
-32.35
-23.31
-14.84
-7.21
-0.09
6.88
13.70
19.94
24.97
28.34
29.99
30.23
29.56
28.56
27.87
28.27
30.48
34.99
41.79
50.17
58.91
66.61
72.14
74.85
74.76
72.43
68.74
64.60
60.71
57.40
54.57
51.81
48.55
44.32
38.93
32.49
25.38
18.03
10.73
3.55
-3.65
-10.97
-18.28
-25.02
-30.35
-33.35
-33.55
-30.99
-26.37
-20.63
-14.61
-8.80
-3.30
1.93
6.91
11.50
15.44
18.49
20.53
21.60
21.79
21.13
19.54
16.88
13.12
8.46
3.31
-1.71
-6.02
-9.25
-11.41
-12.89
-14.25
-16.02
-18.40
-21.16
-23.75
-25.64
-26.57
-26.81
-26.99
-27.86
-29.90
-33.09
-36.92
-40.58
-43.38
-44.95
-45.35
-45.02
-44.54
-44.44
-45.02
-46.30
-48.03
-49.75
-50.94
-51.08
-49.76
-46.69
-41.73
-34.99
-26.75
-17.51
-7.80
1.92
11.34
20.30
28.68
36.26
42.64
47.33
49.93
50.44
49.32
47.45
45.84
45.33
46.27
48.53
51.58
54.80
57.63
59.72
60.85
60.94
59.94
57.96
55.26
52.28
49.47
47.01
44.61
41.40
36.30
28.63
18.79
8.50
0.26
-3.80
-3.00
1.34
6.32
8.60
5.61
-3.68
-18.71
-37.69
-58.10
-77.03
-91.39
-98.30
-95.84
-83.89
-64.53
-41.69
-19.98
-3.18
6.88
10.63
10.26
8.48
7.55
8.49
11.12
14.49
17.58
19.79
21.01
21.48
21.46
21.06
20.23
18.93
17.27
15.50
13.85
12.36
10.79
8.82
6.27
3.21
-0.03
-3.13
-6.06
-9.19
-13.03
-17.92
-23.76
-29.86
-35.33
-39.37
-41.71
-42.53
-42.45
-42.23
-42.56
-44.00
-46.83
-51.00
-55.90
-60.44
-63.23
-62.95
-58.89
-51.20
-40.86
-29.20
-17.47
-6.38
3.94
13.78
23.43
32.97
42.11
50.40
57.42
62.99
67.20
70.35
72.75
74.70
76.37
77.90
79.30
80.47
81.21
81.22
80.23
78.08
74.80
70.58
65.65
60.19
54.27
47.88
41.08
34.02
27.02
20.36
14.23
8.59
3.19
-2.32
-8.28
-14.90
-22.17
-29.92
-37.82
-45.43
-52.23
-57.58
-60.84
-61.46
-59.17
-54.14
-46.95
-38.48
-29.59
-20.92
-12.75
-5.10
2.12
8.83
14.76
19.52
22.82
24.63
25.30
25.33
25.25
25.37
25.76
26.33
27.00
27.83
28.97
30.57
32.61
34.73
36.34
36.82
35.75
33.20
29.70
26.00
22.81
20.42
18.68
17.22
15.73
14.23
13.03
12.35
12.06
11.37
9.17
4.45
-3.12
-13.05
-24.21
-35.42
-45.79
-54.95
-62.82
-69.30
-74.19
-77.27
-78.55
-78.33
-77.01
-74.67
-70.92
-64.97
-56.13
-44.33
-30.44
-16.14
-3.35
6.43
12.52
15.18
15.23
13.70
11.47
9.13
7.01
5.22
3.83
2.86
2.31
2.20
2.52
3.18
4.06
5.00
5.78
6.33
6.60
6.70
6.73
6.72
6.59
6.14
5.21
3.82
2.23
0.86
0.09
0.06
0.50
0.73
-0.11
-2.76
-7.63
-14.57
-22.96
-31.87
-40.23
-47.01
-51.38
-52.78
-51.07
-46.53
-39.87
-32.01
-23.88
-16.07
-8.71
-1.52
5.87
13.63
21.56
29.14
35.78
41.14
45.31
48.64
51.59
54.46
57.27
59.80
61.72
62.76
62.81
61.89
60.19
58.03
55.86
54.10
53.00
52.46
52.03
51.07
49.08
45.88
41.77
37.27
32.82
28.54
24.26
19.74
14.85
9.73
4.70
0.02
-4.26
-8.41
-12.82
-17.90
-23.95
-31.10
-39.29
-48.29
-57.60
-66.41
-73.71
-78.50
-80.11
-78.38
-73.79
-67.25
-59.91
-52.82
-46.72
-41.93
-38.29
-35.37
-32.61
-29.55
-26.04
-22.22
-18.48
-15.22
-12.65
-10.65
-8.93
-7.13
-5.04
-2.69
-0.22
2.14
4.33
6.39
8.38
10.36
12.33
14.26
16.13
17.87
19.34
20.28
20.42
19.55
17.68
15.08
12.12
9.13
6.38
3.96
1.91
0.18
-1.37
-3.04
-5.30
-8.66
-13.43
-19.46
-26.06
-32.09
-36.25
-37.46
-35.22
-29.72
-21.79
-12.59
-3.36
5.01
12.08
17.92
22.88
27.39
31.73
35.91
39.67
42.66
44.54
45.15
44.44
42.43
39.18
34.75
29.24
22.80
15.61
7.83
-0.31
-8.51
-16.26
-22.90
-27.85
-30.79
-31.92
-31.84
-31.32
-31.00
-31.15
-31.59
-31.97
-31.96
-31.41
-30.41
-29.14
-27.83
-26.67
-25.89
-25.72
-26.37
-27.99
-30.52
-33.70
-37.08
-40.24
-42.88
-44.95
-46.58
-47.89
-48.84
-49.15
-48.40
-46.21
-42.38
-37.00
-30.29
-22.60
-14.26
-5.67
2.82
10.80
17.99
24.22
29.41
33.46
36.18
37.39
37.08
35.68
33.91
32.64
32.45
33.34
34.84
36.27
37.05
37.06
36.58
36.09
35.99
36.42
37.31
38.47
39.68
40.81
41.80
42.60
43.11
43.12
42.26
40.09
36.38
31.22
25.13
18.87
13.09
8.09
3.72
-0.48
-4.89
-9.60
-14.41
-19.05
-23.42
-27.72
-32.25
-37.23
-42.50
-47.58
-51.87
-54.90
-56.42
-56.46
-55.09
-52.38
-48.25
-42.59
-35.39
-26.82
-17.40
-7.90
0.75
7.77
12.70
15.71
17.44
18.75
20.32
22.31
24.35
25.76
25.95
24.78
22.67
20.46
19.01
18.98
20.54
23.41
26.99
30.53
33.30
34.72
34.40
32.11
27.83
21.74
14.37
6.55
-0.68
-6.31
-9.78
-11.25
-11.61
-12.22
-14.39
-18.81
-25.30
-33.07
-41.03
-48.35
-54.60
-59.66
-63.49
-65.93
-66.68
-65.46
-62.20
-57.16
-50.76
-43.41
-35.36
-26.71
-17.55
-8.21
0.71
8.50
14.55
18.69
21.28
23.08
24.98
27.58
31.09
35.18
39.24
42.50
44.34
44.37
42.57
39.26
35.01
30.52
26.24
22.29
18.32
13.73
8.00
1.02
-6.76
-14.56
-21.55
-27.21
-31.47
-34.61
-37.02
-39.06
-41.05
-43.24
-45.96
-49.49
-53.96
-59.20
-64.78
-70.14
-74.80
-78.47
-81.00
-82.26
-82.00
-79.83
-75.35
-68.34
-58.92
-47.40
-34.37
-20.43
-6.16
7.98
21.69
34.86
47.50
59.68
71.37
82.37
92.29
100.63
107.02
111.37
113.94
115.26
115.88
116.24
116.45
116.37
115.67
113.96
110.92
106.38
100.31
92.80
84.07
74.39
64.09
53.54
43.11
33.17
23.97
15.58
7.86
0.54
-6.67
-13.88
-21.06
-28.05
-34.76
-41.24
-47.68
-54.29
-61.18
-68.19
-74.91
-80.75
-85.04
-87.12
-86.46
-82.72
-76.04
-67.01
-56.67
-46.13
-36.26
-27.47
-19.71
-12.74
-6.42
-0.97
3.16
5.52
5.99
4.90
2.99
1.10
-0.05
-0.03
1.29
3.89
7.68
12.49
18.11
24.25
30.59
36.77
42.39
46.91
49.76
50.25
47.84
42.37
34.15
23.86
12.32
0.20
-12.09
-24.24
-35.86
-46.32
-54.95
-61.34
-65.61
-68.46
-70.72
-73.01
-75.31
-77.08
-77.55
-76.11
-72.51
-66.80
-59.16
-49.82
-39.15
-27.72
-16.36
-5.88
3.11
10.60
17.12
23.39
29.96
36.90
43.72
49.61
53.85
56.09
56.55
55.92
55.05
54.64
54.98
55.98
57.32
58.66
59.76
60.46
60.55
59.66
57.38
53.41
47.73
40.71
32.96
25.15
17.69
10.73
4.15
-2.23
-8.53
-14.72
-20.67
-26.16
-31.17
-35.86
-40.62
-46.01
-52.50
-60.27
-68.98
-77.77
-85.39
-90.40
-91.61
-88.30
-80.39
-68.55
-53.93
-38.00
-22.10
-7.20
6.25
18.21
28.87
38.41
46.85
54.13
60.12
64.81
68.29
70.74
72.31
73.14
73.29
72.79
71.67
69.98
67.76
65.01
61.76
58.00
53.71
48.92
43.74
38.42
33.34
28.86
25.15
22.04
19.07
15.66
11.42
6.36
0.90
-4.26
-8.45
-11.33
-12.99
-13.87
-14.58
-15.55
-16.90
-18.47
-19.97
-21.26
-22.48
-23.93
-25.78
-27.80
-29.31
-29.39
-27.36
-23.10
-17.13
-10.35
-3.59
2.69
8.38
13.52
17.97
21.36
23.25
23.39
21.93
19.49
16.79
14.47
12.68
11.11
9.09
5.87
1.02
-5.45
-12.95
-20.49
-26.80
-30.72
-31.51
-29.01
-23.79
-17.04
-10.25
-4.91
-2.11
-2.38
-5.60
-11.15
-18.11
-25.47
-32.26
-37.80
-41.76
-44.35
-46.22
-48.32
-51.37
-55.56
-60.29
-64.28
-66.01
-64.29
-58.75
-49.98
-39.26
-28.08
-17.55
-8.14
0.29
8.11
15.51
22.27
27.78
31.40
32.80
32.31
30.87
29.67
29.70
31.32
34.20
37.58
40.64
42.95
44.42
45.13
45.08
43.94
41.33
37.02
31.25
24.68
18.19
12.47
7.74
3.90
0.67
-2.14
-4.56
-6.58
-8.31
-10.06
-12.24
-15.25
-19.18
-23.77
-28.35
-32.04
-33.98
-33.53
-30.52
-25.21
-18.21
-10.18
-1.70
6.81
15.10
22.88
29.86
35.70
40.20
43.30
45.19
46.11
46.31
45.98
45.24
44.17
42.87
41.41
39.91
38.45
37.13
36.07
35.44
35.51
36.62
39.25
43.86
50.55
58.76
67.20
74.03
77.49
76.39
70.46
60.27
46.71
30.52
12.12
-8.23
-30.02
-52.22
-73.44
-92.27
-107.75
-119.31
-126.66
-129.38
-126.83
-118.56
-104.87
-87.19
-67.92
-49.67
-34.33
-22.57
-13.73
-6.52
0.13
6.70
12.96
18.34
22.29
24.40
24.45
22.42
18.50
13.19
7.26
1.62
-2.93
-5.87
-7.05
-6.58
-4.80
-2.20
0.61
3.06
4.66
5.22
4.76
3.47
1.52
-0.99
-3.97
-7.31
-10.65
-13.68
-16.15
-18.09
-19.83
-21.74
-24.12
-27.00
-30.11
-33.09
-35.57
-37.29
-38.14
-38.02
-36.80
-34.29
-30.38
-25.21
-19.32
-13.54
-8.68
-5.16
-2.68
-0.37
2.79
7.44
13.45
20.00
26.04
30.81
34.15
36.42
38.15
39.62
40.77
41.39
41.35
40.85
40.35
40.31
40.85
41.68
42.12
41.49
39.42
35.99
31.74
27.36
23.45
20.21
17.52
14.98
12.23
9.07
5.57
1.88
-1.80
-5.31
-8.41
-10.76
-11.84
-11.23
-8.84
-5.09
-0.78
3.30
6.87
10.47
15.37
22.96
34.00
47.85
62.24
73.76
78.87
75.12
62.02
41.11
15.41
-11.64
-37.09
-59.07
-76.70
-89.94
-99.25
-105.45
-109.51
-112.17
-113.43
-112.16
-106.20
-93.24
-71.97
-43.17
-9.92
23.22
51.65
72.16
83.74
87.49
85.80
81.28
75.90
70.69
65.81
60.91
55.44
48.77
40.25
29.31
15.55
-0.91
-19.18
-37.56
-53.80
-65.82
-72.46
-73.88
-71.57
-67.63
-63.88
-61.23
-59.42
-57.41
-54.05
-48.68
-41.44
-33.10
-24.75
-17.40
-11.66
-7.64
-5.07
-3.43
-2.21
-1.06
0.16
1.42
2.58
3.40
3.66
3.11
1.58
-0.88
-3.86
-6.61
-8.17
-7.78
-5.15
-0.63
4.83
10.01
13.79
15.45
14.79
12.20
8.38
4.12
0.02
-3.62
-6.91
-10.18
-13.83
-18.12
-23.07
-28.46
-33.86
-38.75
-42.61
-44.91
-45.22
-43.30
-39.21
-33.33
-26.34
-19.04
-12.13
-6.01
-0.75
3.73
7.51
10.46
12.33
13.00
12.65
11.87
11.46
12.04
13.77
16.35
19.25
22.10
24.97
28.32
32.73
38.55
45.75
53.89
62.35
70.42
77.41
82.73
85.96
86.92
85.80
83.10
79.51
75.77
72.63
70.61
69.89
70.14
70.33
68.92
64.23
55.07
41.26
23.78
4.54
-14.32
-30.95
-44.24
-53.78
-59.73
-62.56
-62.97
-61.74
-59.67
-57.37
-55.13
-52.84
-50.00
-46.11
-40.95
-34.84
-28.59
-23.20
-19.52
-17.91
-18.25
-20.03
-22.62
-25.42
-27.94
-29.76
-30.51
-29.95
-28.13
-25.40
-22.43
-19.99
-18.74
-19.01
-20.69
-23.17
-25.51
-26.75
-26.32
-24.35
-21.67
-19.58
-19.15
-20.83
-24.23
-28.41
-32.35
-35.47
-37.79
-39.74
-41.82
-44.26
-46.96
-49.58
-51.68
-52.84
-52.73
-51.10
-47.80
-42.83
-36.44
-29.01
-21.12
-13.30
-5.94
0.82
7.02
12.89
18.63
24.28
29.74
34.79
39.26
43.11
46.37
49.03
50.96
51.87
51.54
50.02
47.72
45.21
42.98
41.09
39.18
36.70
33.20
28.66
23.42
18.05
12.98
8.41
4.28
0.36
-3.55
-7.60
-11.82
-16.11
-20.27
-24.13
-27.55
-30.58
-33.41
-36.34
-39.58
-43.11
-46.67
-49.69
-51.54
-51.69
-49.83
-45.92
-40.16
-33.01
-25.04
-16.93
-9.27
-2.53
3.08
7.57
11.05
13.69
15.60
16.89
17.72
18.36
19.17
20.43
22.19
24.30
26.37
28.08
29.30
30.16
31.00
32.16
33.81
35.97
38.44
40.96
43.21
44.81
45.42
44.73
42.64
39.38
35.47
31.59
28.45
26.55
26.11
27.03
28.88
30.97
32.37
32.12
29.48
24.08
16.14
6.45
-3.85
-13.44
-21.18
-26.27
-28.42
-27.88
-25.40
-21.88
-18.15
-14.67
-11.60
-8.88
-6.56
-4.82
-3.93
-4.06
-5.08
-6.54
-7.93
-8.97
-9.67
-10.34
-11.28
-12.53
-13.92
-15.08
-15.80
-16.13
-16.41
-17.07
-18.42
-20.41
-22.77
-25.06
-26.92
-28.27
-29.34
-30.41
-31.70
-33.13
-34.43
-35.23
-35.39
-35.03
-34.57
-34.50
-35.16
-36.61
-38.57
-40.58
-42.11
-42.69
-41.99
-39.83
-36.16
-31.09
-24.84
-17.77
-10.22
-2.55
4.96
12.03
18.40
23.77
27.82
30.34
31.34
31.15
30.32
29.43
28.83
28.49
28.10
27.32
26.07
24.56
23.25
22.46
22.18
21.99
21.29
19.61
16.80
13.12
8.99
4.83
0.90
-2.74
-6.08
-9.10
-11.61
-13.43
-14.48
-14.93
-15.20
-15.83
-17.24
-19.51
-22.38
-25.30
-27.64
-28.99
-29.19
-28.46
-27.21
-25.96
-25.04
-24.48
-23.91
-22.67
-20.01
-15.46
-9.09
-1.65
5.61
11.27
14.18
13.77
10.41
5.50
1.40
0.99
6.75
19.74
38.88
61.02
81.86
97.43
105.44
105.90
100.77
92.76
84.19
76.23
68.94
61.83
54.45
46.76
39.03
31.55
24.38
17.32
10.08
2.50
-5.29
-12.89
-19.83
-25.79
-30.72
-34.82
-38.38
-41.51
-44.05
-45.54
-45.36
-43.01
-38.34
-31.63
-23.53
-14.78
-5.98
2.55
10.74
18.66
26.20
33.02
38.58
42.33
43.94
43.39
41.01
37.31
32.83
28.03
23.29
18.95
15.33
12.69
11.15
10.62
10.72
10.92
10.66
9.48
7.31
4.36
1.13
-1.83
-4.11
-5.63
-6.62
-7.55
-8.84
-10.72
-13.07
-15.58
-17.96
-20.10
-22.22
-24.74
-28.16
-32.74
-38.37
-44.50
-50.29
-54.78
-57.13
-56.77
-53.54
-47.71
-39.86
-30.75
-21.10
-11.50
-2.30
6.35
14.27
21.28
27.03
31.20
33.69
34.78
35.04
35.19
35.77
36.90
38.28
39.48
40.15
40.24
39.88
39.23
38.28
36.81
34.66
31.87
28.87
26.32
24.83
24.52
24.93
25.21
24.48
22.32
18.93
15.01
11.41
8.69
7.04
6.34
6.40
6.94
7.47
7.04
4.26
-2.31
-13.43
-28.56
-45.72
-61.94
-74.22
-80.50
-80.12
-73.76
-62.82
-48.81
-32.88
-15.82
1.63
18.51
33.54
45.39
53.05
56.25
55.52
51.97
46.73
40.56
33.62
25.83
17.33
8.78
1.38
-3.67
-5.81
-5.47
-3.97
-2.94
-3.53
-5.98
-9.68
-13.61
-16.98
-19.59
-21.75
-23.91
-26.27
-28.62
-30.57
-31.90
-32.76
-33.67
-35.24
-37.84
-41.37
-45.32
-48.91
-51.38
-52.13
-50.76
-47.15
-41.39
-33.87
-25.22
-16.27
-7.77
-0.24
6.18
11.58
16.11
19.86
22.74
24.60
25.39
25.27
24.57
23.69
22.98
22.62
22.62
22.86
23.19
23.43
23.44
23.10
22.40
21.51
20.62
19.86
19.16
18.21
16.63
14.15
10.82
7.01
3.22
-0.14
-2.92
-5.26
-7.41
-9.59
-11.85
-14.19
-16.69
-19.63
-23.44
-28.43
-34.56
-41.26
-47.53
-52.13
-54.02
-52.69
-48.30
-41.61
-33.63
-25.28
-17.14
-9.39
-2.05
4.86
11.17
16.49
20.48
22.92
23.86
23.59
22.50
21.04
19.63
18.62
18.29
18.76
19.98
21.70
23.67
25.69
27.69
29.72
31.81
33.87
35.63
36.73
36.87
35.87
33.79
30.80
27.18
23.18
19.05
14.90
10.81
6.69
2.35
-2.47
-7.97
-14.14
-20.63
-26.84
-32.10
-35.92
-38.19
-39.21
-39.48
-39.48
-39.36
-38.85
-37.36
-34.28
-29.26
-22.51
-14.80
-7.33
-1.25
2.66
4.27
4.08
2.93
1.60
0.56
-0.11
-0.51
-0.73
-0.71
-0.32
0.53
1.71
2.91
3.82
4.25
4.30
4.24
4.38
4.82
5.43
5.85
5.65
4.50
2.36
-0.57
-3.85
-7.02
-9.70
-11.73
-13.23
-14.54
-16.09
-18.18
-20.80
-23.57
-25.76
-26.61
-25.49
-22.17
-16.83
-9.99
-2.32
5.57
13.22
20.40
27.02
33.05
38.39
42.80
46.02
47.88
48.46
48.04
46.99
45.61
44.01
42.14
39.87
37.17
34.22
31.31
28.74
26.69
25.11
23.80
22.45
20.75
18.52
15.74
12.53
9.10
5.57
1.94
-1.92
-6.07
-10.41
-14.63
-18.34
-21.32
-23.65
-25.71
-28.04
-31.13
-35.20
-40.19
-45.77
-51.42
-56.54
-60.42
-62.43
-62.08
-59.26
-54.24
-47.69
-40.40
-33.10
-26.27
-20.10
-14.59
-9.66
-5.32
-1.58
1.48
3.84
5.53
6.61
7.23
7.60
8.02
8.86
10.45
12.95
16.23
19.90
23.43
26.30
28.13
28.73
28.15
26.51
24.06
21.07
17.82
14.58
11.53
8.78
6.27
3.84
1.32
-1.33
-4.09
-6.93
-9.87
-13.12
-17.02
-21.89
-27.73
-34.24
-40.73
-46.36
-50.42
-52.45
-52.31
-50.07
-46.00
-40.52
-34.25
-27.89
-22.00
-16.86
-12.28
-7.88
-3.35
1.21
5.18
7.74
8.42
7.52
6.03
5.23
5.99
8.40
11.86
15.56
19.08
22.52
26.31
30.68
35.26
39.13
41.25
41.03
38.62
34.84
30.75
27.15
24.40
22.50
21.29
20.69
20.72
21.45
22.77
24.32
25.52
25.69
24.18
20.47
14.35
5.87
-4.51
-15.86
-26.85
-35.94
-41.77
-43.62
-41.68
-36.99
-30.98
-24.91
-19.36
-14.17
-8.81
-2.88
3.59
10.03
15.73
20.19
23.33
25.50
27.21
28.86
30.60
32.31
33.81
34.94
35.64
36.01
36.19
36.27
36.19
35.67
34.27
31.58
27.47
22.21
16.37
10.59
5.35
0.81
-3.24
-7.07
-10.98
-15.09
-19.44
-24.02
-28.86
-33.97
-39.38
-45.04
-50.82
-56.72
-62.78
-69.11
-75.63
-81.94
-87.25
-90.53
-90.89
-87.88
-81.70
-73.12
-63.16
-52.73
-42.34
-32.09
-21.85
-11.48
-1.07
9.01
18.27
26.31
32.94
38.26
42.56
46.17
49.23
51.74
53.53
54.52
54.84
54.94
55.42
56.84
59.30
62.33
64.92
65.93
64.54
60.73
55.41
50.12
46.51
45.87
48.75
54.94
63.63
73.27
81.50
85.34
81.86
69.25
47.86
20.42
-8.83
-35.73
-57.88
-75.21
-89.29
-101.62
-112.03
-118.33
-117.24
-106.37
-85.87
-58.98
-30.95
-7.13
8.96
16.47
17.00
13.20
7.52
1.35
-4.85
-10.76
-15.58
-17.99
-16.66
-11.10
-2.08
8.52
18.50
26.23
31.22
34.01
35.68
37.16
38.78
40.25
40.97
40.42
38.47
35.42
31.77
28.05
24.56
21.32
18.20
15.05
11.84
8.67
5.67
2.74
-0.49
-4.70
-10.57
-18.62
-28.80
-40.43
-52.15
-62.24
-69.05
-71.42
-69.05
-62.52
-53.13
-42.51
-32.15
-23.04
-15.46
-9.07
-3.28
2.37
7.95
13.13
17.40
20.38
22.05
22.66
22.55
21.88
20.63
18.86
16.85
15.22
14.56
15.08
16.32
17.28
16.75
13.93
8.67
1.57
-6.39
-14.29
-21.52
-27.90
-33.47
-38.20
-41.93
-44.34
-45.21
-44.61
-42.98
-41.05
-39.59
-39.23
-40.39
-43.30
-48.02
-54.46
-62.06
-69.76
-75.91
-78.65
-76.53
-69.04
-56.90
-41.87
-26.10
-11.40
1.26
11.93
21.20
29.82
38.18
46.19
53.42
59.39
63.90
66.98
68.90
69.86
70.00
69.29
67.67
65.21
62.14
58.85
55.75
53.13
50.97
48.94
46.51
43.20
38.75
33.28
27.14
20.80
14.60
8.66
2.95
-2.67
-8.25
-13.77
-19.16
-24.44
-29.71
-35.17
-41.04
-47.42
-54.17
-60.89
-66.96
-71.62
-74.17
-74.16
-71.54
-66.72
-60.41
-53.45
-46.54
-39.97
-33.73
-27.64
-21.58
-15.65
-10.25
-5.90
-3.10
-2.03
-2.46
-3.56
-4.04
-2.39
2.68
11.79
24.71
40.43
57.50
74.45
90.00
103.23
113.49
120.38
123.83
124.13
121.92
117.98
112.94
107.11
100.48
92.85
84.12
74.44
64.14
53.56
42.92
32.21
21.27
9.93
-1.84
-13.86
-25.70
-36.70
-46.11
-53.20
-57.48
-58.78
-57.31
-53.64
-48.56
-42.87
-37.21
-32.00
-27.36
-23.29
-19.79
-16.90
-14.73
-13.35
-12.69
-12.47
-12.30
-11.85
-10.95
-9.69
-8.30
-7.03
-5.95
-5.00
-4.10
-3.25
-2.65
-2.57
-3.22
-4.59
-6.46
-8.47
-10.32
-11.86
-13.11
-14.22
-15.34
-16.54
-17.85
-19.23
-20.62
-21.89
-22.90
-23.54
-23.95
-24.48
-25.72
-28.25
-32.32
-37.63
-43.28
-48.01
-50.59
-50.29
-46.97
-41.16
-33.77
-25.82
-18.18
-11.42
-5.72
-0.94
3.27
7.33
11.54
15.97
20.43
24.61
28.17
30.94
32.89
34.05
34.37
33.74
32.01
29.26
25.83
22.33
19.38
17.43
16.53
16.35
16.36
15.98
14.81
12.68
9.59
5.71
1.32
-3.26
-7.62
-11.41
-14.36
-16.38
-17.57
-18.19
-18.59
-19.12
-20.10
-21.64
-23.70
-26.00
-28.20
-29.93
-30.95
-31.08
-30.24
-28.42
-25.61
-21.89
-17.31
-11.86
-5.41
2.25
11.35
21.91
33.51
45.26
55.97
64.43
69.79
71.79
70.69
67.20
62.13
56.23
50.09
44.10
38.43
33.07
27.90
22.73
17.49
12.25
7.30
3.01
-0.28
-2.42
-3.48
-3.76
-3.62
-3.42
-3.49
-4.02
-5.05
-6.47
-8.09
-9.73
-11.28
-12.90
-14.89
-17.70
-21.73
-27.21
-34.04
-41.81
-49.83
-57.35
-63.74
-68.55
-71.57
-72.70
-71.79
-68.66
-63.26
-55.83
-47.02
-37.73
-28.82
-20.81
-13.71
-7.32
-1.55
3.27
6.61
8.00
7.52
5.89
4.14
3.20
3.45
4.73
6.59
8.77
11.37
14.83
19.52
25.42
31.90
37.87
42.19
44.10
43.53
41.02
37.34
33.15
28.77
24.27
19.71
15.38
11.78
9.33
8.05
7.45
6.69
5.03
2.27
-1.19
-4.49
-6.80
-7.63
-6.93
-5.04
-2.50
0.08
2.14
3.22
3.05
1.72
-0.38
-2.63
-4.42
-5.43
-5.66
-5.33
-4.64
-3.49
-1.54
1.59
6.00
11.30
16.62
20.96
23.62
24.34
23.38
21.25
18.41
15.25
11.99
8.79
5.80
3.04
0.39
-2.41
-5.69
-9.67
-14.41
-19.69
-25.17
-30.41
-34.95
-38.41
-40.48
-40.98
-40.00
-37.96
-35.59
-33.79
-33.34
-34.60
-37.29
-40.49
-42.84
-43.02
-40.13
-33.97
-25.04
-14.35
-3.09
7.65
17.09
24.76
30.53
34.49
36.87
37.98
38.17
37.78
37.13
36.41
35.72
34.98
34.04
32.79
31.29
29.79
28.68
28.28
28.60
29.28
29.65
29.01
26.89
23.21
18.25
12.46
6.28
0.06
-5.92
-11.44
-16.18
-19.89
-22.42
-23.85
-24.50
-24.85
-25.31
-26.19
-27.68
-29.95
-33.29
-38.04
-44.32
-51.68
-58.96
-64.56
-67.02
-65.62
-60.68
-53.32
-44.89
-36.26
-27.57
-18.41
-8.37
2.52
13.62
23.96
32.66
39.15
43.35
45.47
45.97
45.47
44.64
44.03
43.80
43.63
42.84
40.73
37.01
32.03
26.55
21.44
17.18
13.73
10.57
7.05
2.73
-2.44
-8.01
-13.12
-16.50
-16.91
-13.48
-6.25
3.68
14.34
23.53
29.53
31.57
29.84
25.16
18.54
10.89
3.02
-4.30
-10.30
-14.37
-16.23
-16.09
-14.59
-12.57
-10.75
-9.54
-8.97
-8.77
-8.46
-7.66
-6.08
-3.76
-0.97
1.84
4.32
6.31
7.94
9.49
11.21
13.23
15.51
17.87
20.12
22.06
23.52
24.34
24.41
23.72
22.36
20.46
18.08
15.21
11.79
7.81
3.42
-1.05
-5.15
-8.51
-10.98
-12.79
-14.54
-17.11
-21.39
-27.98
-36.86
-47.23
-57.55
-66.05
-71.16
-72.05
-68.85
-62.47
-54.26
-45.41
-36.64
-28.03
-19.28
-10.08
-0.39
9.34
18.31
25.66
30.82
33.67
34.53
33.91
32.24
29.77
26.62
22.99
19.39
16.54
15.12
15.48
17.35
19.86
21.88
22.42
21.07
18.05
14.02
9.73
5.76
2.37
-0.34
-2.26
-3.24
-3.15
-2.09
-0.47
0.99
1.57
0.70
-1.80
-5.83
-11.16
-17.52
-24.65
-32.15
-39.36
-45.33
-49.08
-49.90
-47.59
-42.61
-35.82
-28.22
-20.55
-13.17
-6.13
0.62
7.03
12.85
17.62
20.96
22.63
22.71
21.59
19.84
18.07
16.86
16.57
17.30
18.90
20.99
23.13
24.94
26.23
26.99
27.29
27.23
26.82
26.11
25.14
24.01
22.79
21.45
19.83
17.71
14.99
11.80
8.50
5.49
2.99
0.88
-1.31
-4.18
-8.27
-13.75
-20.35
-27.43
-34.12
-39.49
-42.67
-43.03
-40.30
-34.67
-26.80
-17.71
-8.49
-0.08
6.96
12.49
16.61
19.55
21.42
22.27
22.11
21.08
19.46
17.68
16.11
15.03
14.57
14.76
15.60
17.02
18.91
21.01
22.98
24.41
24.94
24.35
22.61
19.89
16.47
12.76
9.16
6.02
3.56
1.76
0.35
-1.14
-3.13
-5.86
-9.36
-13.47
-18.02
-22.93
-28.11
-33.30
-37.95
-41.23
-42.30
-40.70
-36.54
-30.48
-23.38
-15.99
-8.78
-1.90
4.57
10.43
15.40
19.15
21.43
22.12
21.26
19.06
15.86
12.20
8.70
5.91
4.16
3.41
3.30
3.42
3.44
3.30
3.15
3.15
3.32
3.47
3.29
2.52
0.99
-1.37
-4.52
-8.37
-12.80
-17.47
-21.91
-25.60
-28.13
-29.42
-29.83
-30.03
-30.82
-32.82
-36.31
-41.02
-46.23
-50.85
-53.70
-53.87
-50.95
-45.20
-37.42
-28.68
-19.90
-11.61
-3.89
3.45
10.59
17.48
23.84
29.26
33.46
36.39
38.18
39.08
39.27
38.81
37.76
36.18
34.32
32.52
31.14
30.38
30.12
29.97
29.41
28.08
25.92
23.20
20.38
17.80
15.55
13.44
11.11
8.30
5.02
1.48
-1.96
-5.09
-7.91
-10.65
-13.65
-17.24
-21.60
-26.77
-32.57
-38.63
-44.36
-48.99
-51.75
-51.97
-49.32
-43.81
-35.84
-26.12
-15.55
-5.12
4.26
11.91
17.49
21.05
22.91
23.51
23.21
22.23
20.75
18.95
17.08
15.47
14.36
13.82
13.73
13.86
14.05
14.23
14.46
14.80
15.25
15.63
15.71
15.27
14.30
12.94
11.46
10.10
8.96
7.94
6.83
5.49
3.88
2.15
0.51
-0.90
-2.10
-3.34
-4.98
-7.42
-10.86
-15.20
-19.90
-24.13
-26.95
-27.68
-26.15
-22.80
-18.56
-14.41
-10.98
-8.37
-6.09
-3.39
0.33
5.25
11.05
17.04
22.49
26.81
29.68
31.05
31.02
29.83
27.85
25.50
23.22
21.38
20.14
19.48
19.15
18.81
18.06
16.66
14.55
11.85
8.91
6.10
3.73
1.93
0.53
-0.78
-2.35
-4.46
-7.16
-10.29
-13.58
-16.73
-19.63
-22.46
-25.63
-29.56
-34.52
-40.33
-46.35
-51.61
-55.07
-55.96
-53.91
-49.07
-41.95
-33.31
-23.91
-14.48
-5.58
2.40
9.25
14.92
19.49
23.06
25.77
27.75
29.13
30.06
30.74
31.37
32.07
32.89
33.75
34.52
35.13
35.53
35.73
35.65
35.09
33.72
31.30
27.87
23.78
19.64
16.05
13.33
11.32
9.46
7.06
3.64
-0.77
-5.65
-10.23
-13.89
-16.48
-18.47
-20.69
-23.95
-28.64
-34.49
-40.69
-46.24
-50.22
-52.16
-51.88
-49.48
-45.15
-39.14
-31.79
-23.57
-14.96
-6.36
1.98
9.96
17.39
23.78
28.35
30.18
28.65
23.79
16.32
7.42
-1.73
-10.21
-17.56
-23.58
-28.14
-31.07
-32.19
-31.58
-29.65
-27.06
-24.54
-22.70
-21.77
-21.68
-22.10
-22.49
-22.19
-20.58
-17.30
-12.50
-6.82
-1.27
3.21
6.03
7.07
6.48
4.45
1.00
-3.94
-10.28
-17.48
-24.56
-30.24
-33.35
-33.15
-29.45
-22.69
-13.80
-4.02
5.44
13.65
20.30
25.80
31.01
36.89
44.02
52.26
60.76
68.23
73.38
75.32
73.78
69.10
62.15
54.05
46.03
39.06
33.74
30.15
27.90
26.34
24.80
22.82
20.29
17.40
14.55
12.11
10.30
9.03
7.97
6.66
4.70
1.96
-1.40
-4.90
-8.01
-10.32
-11.76
-12.77
-14.12
-16.77
-21.45
-28.38
-37.06
-46.37
-54.91
-61.44
-65.15
-65.82
-63.56
-58.58
-51.14
-41.67
-31.05
-20.64
-11.96
-6.21
-3.69
-3.79
-5.19
-6.53
-6.90
-6.06
-4.29
-2.06
0.27
2.55
4.69
6.61
8.15
9.15
9.51
9.26
8.45
7.13
5.21
2.59
-0.82
-4.95
-9.58
-14.40
-19.06
-23.31
-27.06
-30.45
-33.88
-37.85
-42.75
-48.62
-54.96
-60.74
-64.71
-65.74
-63.22
-57.20
-48.34
-37.62
-25.99
-14.18
-2.64
8.36
18.62
27.95
36.23
43.42
49.61
54.88
59.19
62.37
64.11
64.16
62.38
58.87
53.88
47.80
41.12
34.32
27.93
22.27
17.56
13.73
10.56
7.81
5.34
3.09
1.08
-0.68
-2.26
-3.71
-5.05
-6.30
-7.55
-9.05
-11.22
-14.46
-18.85
-23.95
-28.88
-32.56
-34.12
-33.17
-29.90
-24.93
-19.02
-12.85
-6.92
-1.56
3.07
6.94
10.14
12.84
15.22
17.40
19.44
21.28
22.93
24.43
25.85
27.23
28.47
29.38
29.78
29.58
28.88
27.87
26.67
25.22
23.35
20.84
17.66
13.98
10.12
6.41
2.97
-0.22
-3.38
-6.68
-10.23
-13.99
-17.78
-21.40
-24.68
-27.57
-30.09
-32.26
-33.88
-34.51
-33.53
-30.39
-24.90
-17.42
-8.79
-0.04
8.08
15.32
21.90
28.15
34.19
39.69
44.05
46.71
47.52
46.90
45.66
44.69
44.58
45.40
46.79
48.13
48.85
48.69
47.65
45.90
43.65
41.01
37.98
34.48
30.44
25.87
20.81
15.39
9.78
4.16
-1.29
-6.44
-11.21
-15.64
-19.83
-23.92
-28.10
-32.55
-37.40
-42.62
-47.92
-52.65
-55.96
-56.97
-55.13
-50.43
-43.41
-35.03
-26.31
-18.03
-10.57
-3.99
1.84
7.03
11.49
14.94
17.11
17.81
17.21
15.77
14.19
13.13
13.06
14.03
15.77
17.81
19.66
21.03
21.75
21.81
21.20
19.90
17.91
15.28
12.17
8.80
5.43
2.19
-0.94
-4.05
-7.30
-10.79
-14.47
-18.21
-21.87
-25.45
-29.10
-33.08
-37.56
-42.45
-47.31
-51.41
-53.95
-54.28
-52.16
-47.76
-41.58
-34.20
-26.27
-18.39
-11.12
-5.00
-0.45
2.38
3.73
4.07
3.99
3.96
4.20
4.74
5.52
6.57
8.06
10.27
13.52
18.10
24.21
31.90
40.85
50.33
59.12
65.81
69.21
68.79
64.93
58.89
52.33
46.78
43.05
41.06
40.05
39.00
37.05
33.86
29.54
24.60
19.54
14.69
10.00
5.03
-0.76
-7.81
-16.13
-25.18
-33.92
-41.02
-45.27
-45.90
-42.94
-37.18
-30.03
-23.07
-17.62
-14.43
-13.53
-14.30
-15.77
-17.02
-17.44
-16.83
-15.27
-13.00
-10.25
-7.32
-4.55
-2.43
-1.45
-1.91
-3.79
-6.58
-9.50
-11.68
-12.50
-11.74
-9.65
-6.77
-3.67
-0.91
1.10
2.07
1.81
0.28
-2.36
-5.71
-9.24
-12.47
-15.09
-17.06
-18.57
-19.83
-21.07
-22.40
-23.89
-25.60
-27.55
-29.76
-32.09
-34.33
-36.18
-37.44
-37.94
-37.54
-36.05
-33.25
-28.90
-22.86
-15.27
-6.63
2.31
10.69
17.75
23.00
26.25
27.53
26.99
24.80
21.19
16.45
11.00
5.39
0.24
-3.87
-6.47
-7.37
-6.66
-4.78
-2.32
0.09
1.93
2.94
3.10
2.56
1.54
0.25
-1.14
-2.54
-3.98
-5.62
-7.64
-10.22
-13.37
-16.89
-20.43
-23.61
-26.13
-27.88
-28.87
-29.16
-28.75
-27.52
-25.23
-21.58
-16.33
-9.47
-1.37
7.24
15.43
22.30
27.25
30.13
31.13
30.67
29.19
27.13
24.85
22.78
21.32
20.82
21.46
23.16
25.60
28.36
31.02
33.21
34.68
35.28
34.90
33.53
31.27
28.43
25.43
22.69
20.44
18.63
16.92
14.90
12.31
9.21
6.04
3.36
1.58
0.80
0.77
1.09
1.48
1.87
2.38
3.14
4.04
4.69
4.53
2.97
-0.34
-5.47
-12.13
-19.73
-27.49
-34.52
-40.03
-43.38
-44.28
-42.83
-39.44
-34.76
-29.52
-24.37
-19.84
-16.37
-14.34
-14.15
-16.16
-20.58
-27.20
-35.06
-42.35
-46.76
-46.14
-39.41
-27.10
-11.39
4.57
17.78
26.33
29.96
29.85
27.94
26.07
25.29
25.71
26.64
27.12
26.32
23.92
20.13
15.48
10.60
5.97
1.97
-1.02
-2.56
-2.19
0.25
4.45
9.45
14.03
17.09
18.15
17.59
16.37
15.64
16.23
18.33
21.56
25.18
28.41
30.59
31.21
29.89
26.32
20.48
12.64
3.53
-5.79
-14.18
-20.72
-24.99
-27.09
-27.56
-27.10
-26.31
-25.39
-24.28
-22.69
-20.42
-17.55
-14.48
-11.79
-9.98
-9.22
-9.25
-9.56
-9.70
-9.55
-9.42
-9.79
-11.12
-13.52
-16.78
-20.52
-24.39
-28.30
-32.35
-36.62
-41.00
-45.01
-47.92
-49.01
-47.82
-44.43
-39.44
-33.89
-28.87
-25.20
-23.26
-22.86
-23.41
-24.14
-24.34
-23.56
-21.63
-18.67
-14.92
-10.65
-6.04
-1.20
3.87
9.15
14.59
20.04
25.34
30.29
34.77
38.72
41.98
44.42
45.72
45.67
44.14
41.28
37.41
32.96
28.33
23.77
19.46
15.58
12.32
9.84
8.26
7.43
7.10
6.89
6.43
5.51
4.04
2.05
-0.29
-2.76
-5.13
-7.24
-9.14
-11.09
-13.53
-16.93
-21.53
-27.26
-33.62
-39.77
-44.70
-47.53
-47.70
-45.13
-40.22
-33.73
-26.48
-19.19
-12.27
-5.78
0.42
6.56
12.82
19.20
25.46
31.19
35.89
39.14
40.85
41.32
41.19
41.21
42.05
44.05
47.24
51.37
56.02
60.68
64.89
68.26
70.65
72.16
73.09
73.76
74.30
74.43
73.54
70.97
66.31
59.67
51.75
43.55
35.97
29.48
23.85
18.20
11.18
1.43
-12.00
-29.31
-49.70
-71.46
-92.05
-108.58
-118.35
-119.66
-112.28
-97.73
-78.81
-58.84
-40.61
-25.82
-14.88
-7.34
-2.49
0.29
1.44
1.38
0.76
0.47
1.30
3.71
7.65
12.66
18.12
23.49
28.38
32.48
35.38
36.48
35.14
30.84
23.52
13.68
2.21
-9.85
-21.58
-32.46
-42.32
-51.21
-59.24
-66.42
-72.76
-78.29
-83.23
-87.87
-92.42
-96.87
-100.90
-103.97
-105.57
-105.46
-103.70
-100.66
-96.69
-91.86
-85.88
-78.27
-68.75
-57.44
-44.94
-31.95
-18.97
-6.16
6.54
18.97
30.44
39.78
45.80
47.90
46.53
43.03
39.13
36.29
35.19
35.90
38.07
41.39
45.64
50.62
55.85
60.54
63.71
64.62
62.99
59.28
54.44
49.49
45.15
41.53
38.21
34.41
29.43
22.88
14.86
5.91
-3.13
-11.31
-17.72
-21.67
-22.77
-21.04
-16.94
-11.22
-4.77
1.66
7.62
13.06
18.24
23.52
29.18
35.20
41.23
46.67
50.91
53.61
54.88
55.24
55.42
56.02
57.34
59.22
61.24
62.89
63.71
63.39
61.71
58.56
53.99
48.24
41.78
35.28
29.38
24.52
20.77
17.80
15.04
11.86
7.80
2.67
-3.54
-10.64
-18.47
-26.84
-35.53
-44.13
-52.05
-58.49
-62.60
-63.69
-61.38
-55.74
-47.32
-37.04
-25.98
-15.12
-5.09
3.94
12.12
19.71
26.72
32.85
37.57
40.41
41.20
40.33
38.51
36.59
35.23
34.67
34.90
35.63
36.60
37.55
38.24
38.34
37.47
35.31
31.71
26.95
21.64
16.51
12.15
8.78
6.26
4.34
2.84
1.82
1.38
1.52
1.83
1.63
0.23
-2.65
-6.73
-11.22
-15.24
-18.09
-19.47
-19.41
-18.05
-15.49
-11.80
-7.15
-1.98
3.04
7.11
9.62
10.26
9.12
6.61
3.23
-0.57
-4.45
-8.13
-11.35
-13.84
-15.35
-15.80
-15.31
-14.20
-12.78
-11.26
-9.59
-7.59
-5.07
-2.16
0.77
3.12
4.37
4.26
2.81
0.24
-3.39
-8.09
-13.94
-20.80
-28.14
-35.16
-41.01
-45.16
-47.75
-49.41
-51.00
-53.26
-56.43
-60.23
-64.09
-67.37
-69.57
-70.33
-69.42
-66.66
-62.01
-55.67
-48.13
-40.06
-32.16
-24.84
-18.19
-12.09
-6.36
-1.02
3.65
7.26
9.48
10.24
9.78
8.56
7.21
6.29
6.21
7.11
8.74
10.61
12.13
12.91
13.03
13.04
13.78
15.96
19.87
25.20
31.21
36.96
41.57
44.40
45.04
43.28
39.13
32.84
24.93
16.14
7.17
-1.50
-9.81
-18.07
-26.63
-35.56
-44.36
-52.04
-57.39
-59.42
-57.78
-52.85
-45.65
-37.43
-29.38
-22.35
-16.79
-12.72
-9.88
-7.83
-6.00
-3.81
-0.66
3.92
10.25
18.42
28.23
39.17
50.54
61.52
71.46
79.94
86.83
92.17
96.03
98.33
98.86
97.36
93.69
87.90
80.30
71.35
61.61
51.55
41.52
31.75
22.35
13.40
4.95
-2.97
-10.34
-17.25
-23.87
-30.46
-37.32
-44.70
-52.65
-60.96
-69.15
-76.49
-82.15
-85.41
-85.81
-83.34
-78.47
-72.03
-64.99
-58.21
-52.22
-47.13
-42.62
-38.08
-32.62
-25.42
-15.95
-4.24
9.07
22.99
36.53
49.03
60.27
70.20
78.59
84.89
88.38
88.55
85.62
80.64
75.18
70.67
67.93
66.92
67.02
67.42
67.59
67.35
66.72
65.65
63.83
60.71
55.70
48.53
39.49
29.35
19.11
9.59
1.15
-6.43
-13.71
-21.34
-29.72
-38.86
-48.44
-57.89
-66.56
-73.74
-78.69
-80.66
-79.07
-73.77
-65.24
-54.58
-43.31
-32.89
-24.24
-17.58
-12.50
-8.33
-4.54
-0.95
2.27
4.84
6.67
7.88
8.80
9.77
11.03
12.59
14.35
16.15
17.89
19.55
21.17
22.71
24.03
24.84
24.79
23.64
21.40
18.33
14.88
11.47
8.32
5.34
2.27
-1.23
-5.30
-9.81
-14.45
-18.91
-23.07
-27.06
-31.18
-35.69
-40.57
-45.44
-49.55
-52.09
-52.39
-50.18
-45.66
-39.42
-32.24
-24.83
-17.71
-11.13
-5.19
0.07
4.57
8.14
10.68
12.15
12.67
12.45
11.80
11.00
10.29
9.82
9.61
9.56
9.55
9.47
9.27
8.96
8.57
8.04
7.19
5.82
3.78
1.16
-1.75
-4.58
-6.99
-8.94
-10.60
-12.28
-14.21
-16.47
-18.92
-21.32
-23.46
-25.22
-26.71
-28.09
-29.59
-31.42
-33.76
-36.69
-40.17
-43.96
-47.49
-49.98
-50.58
-48.68
-44.15
-37.45
-29.43
-21.07
-13.17
-6.18
-0.22
4.79
8.96
12.34
14.93
16.73
17.80
18.28
18.41
18.43
18.60
19.05
19.81
20.81
21.92
23.05
24.18
25.33
26.46
27.41
27.93
27.66
26.38
24.05
20.84
17.12
13.25
9.59
6.36
3.60
1.22
-1.01
-3.36
-5.99
-8.93
-12.04
-15.10
-17.94
-20.55
-23.03
-25.59
-28.46
-31.78
-35.62
-39.94
-44.54
-48.94
-52.41
-54.10
-53.18
-49.30
-42.70
-34.18
-24.87
-15.86
-7.89
-1.23
4.19
8.62
12.20
14.94
16.79
17.69
17.74
17.20
16.41
15.70
15.31
15.31
15.64
16.19
16.82
17.48
18.18
18.94
19.76
20.50
20.93
20.77
19.84
18.11
15.82
13.36
11.15
9.47
8.38
7.67
7.00
6.04
4.59
2.70
0.57
-1.50
-3.27
-4.71
-6.00
-7.49
-9.55
-12.44
-16.20
-20.62
-25.25
-29.39
-32.26
-33.05
-31.19
-26.48
-19.15
-9.94
0.16
10.09
18.92
26.04
31.21
34.51
36.28
36.91
36.67
35.71
33.95
31.25
27.52
22.88
17.71
12.57
8.10
4.84
3.15
3.02
4.02
5.36
6.01
4.99
1.74
-3.72
-10.73
-18.34
-25.54
-31.52
-35.73
-37.79
-37.47
-34.67
-29.63
-23.02
-15.88
-9.46
-4.82
-2.56
-2.83
-5.37
-9.79
-15.73
-22.91
-30.97
-39.46
-47.64
-54.63
-59.48
-61.30
-59.55
-54.04
-45.11
-33.54
-20.44
-7.06
5.43
16.13
24.53
30.54
34.41
36.59
37.55
37.69
37.28
36.52
35.60
34.66
33.74
32.60
30.64
27.11
21.42
13.64
4.62
-4.07
-10.74
-14.13
-13.93
-10.69
-5.57
0.19
5.56
9.77
12.21
12.29
9.66
4.43
-2.69
-10.45
-17.55
-23.03
-26.71
-29.10
-31.18
-33.91
-37.92
-43.40
-50.05
-57.19
-63.93
-69.16
-71.91
-71.49
-67.84
-61.52
-53.61
-45.31
-37.63
-31.16
-26.04
-22.04
-18.81
-15.91
-12.96
-9.61
-5.69
-1.13
3.98
9.55
15.58
22.29
30.02
39.06
49.33
60.21
70.57
79.03
84.38
86.00
84.06
79.46
73.59
67.91
63.57
61.13
60.45
60.87
61.46
61.26
59.63
56.29
51.37
45.31
38.58
31.61
24.56
17.28
9.36
0.27
-10.40
-22.68
-36.07
-49.57
-61.85
-71.65
-78.05
-80.67
-79.68
-75.65
-69.32
-61.47
-52.86
-44.12
-35.71
-27.90
-20.75
-14.23
-8.35
-3.25
0.89
3.92
5.92
7.15
8.01
8.80
9.60
10.31
10.73
10.79
10.63
10.51
10.72
11.42
12.66
14.45
16.77
19.63
22.91
26.27
29.20
31.12
31.64
30.61
28.11
24.27
19.14
12.67
4.88
-3.98
-13.34
-22.40
-30.41
-36.86
-41.53
-44.33
-45.19
-43.87
-40.16
-34.05
-25.91
-16.42
-6.42
3.44
12.76
21.39
29.26
36.23
42.07
46.57
49.67
51.53
52.61
53.40
54.30
55.47
56.81
58.05
58.90
59.24
59.18
59.05
59.26
60.07
61.38
62.86
63.98
64.34
63.66
61.83
58.65
53.82
46.88
37.45
25.48
11.44
-3.72
-18.78
-32.60
-44.43
-54.06
-61.72
-67.97
-73.45
-78.69
-83.86
-88.72
-92.64
-94.73
-94.13
-90.32
-83.35
-73.84
-62.82
-51.40
-40.42
-30.37
-21.36
-13.41
-6.53
-0.92
3.15
5.47
6.09
5.35
3.92
2.63
2.31
3.61
6.84
11.82
17.89
23.93
28.65
30.98
30.36
26.89
21.35
14.89
8.74
3.96
1.20
0.74
2.44
5.83
10.16
14.57
18.19
20.37
20.74
19.28
16.14
11.72
6.47
1.01
-3.94
-7.68
-9.68
-9.70
-7.79
-4.10
1.31
8.57
17.86
29.09
41.67
54.45
66.02
75.14
81.08
83.66
83.04
79.51
73.30
64.77
54.59
43.83
33.79
25.58
19.74
16.07
13.84
12.24
10.75
9.34
8.31
8.02
8.57
9.79
11.31
12.78
13.90
14.33
13.53
10.70
4.98
-4.14
-16.35
-30.44
-44.60
-57.07
-66.81
-73.83
-79.08
-83.85
-89.18
-95.37
-101.94
-107.83
-111.78
-112.72
-109.98
-103.47
-93.67
-81.56
-68.42
-55.47
-43.60
-33.20
-24.27
-16.62
-10.02
-4.35
0.43
4.46
8.00
11.33
14.73
18.24
21.67
24.73
27.21
29.08
30.50
31.73
32.98
34.29
35.58
36.60
37.15
37.14
36.65
35.94
35.26
34.82
34.61
34.42
33.84
32.45
30.00
26.59
22.73
19.13
16.42
14.68
13.31
11.03
6.45
-1.49
-12.98
-27.19
-42.49
-56.87
-68.41
-75.67
-77.74
-74.37
-65.91
-53.31
-37.98
-21.60
-5.79
8.18
19.60
28.33
34.66
39.15
42.38
44.82
46.77
48.33
49.39
49.76
49.25
47.84
45.79
43.62
41.90
41.06
41.11
41.65
41.97
41.34
39.31
35.93
31.66
27.16
23.03
19.62
17.04
15.25
14.27
14.13
14.87
16.41
18.49
20.74
22.80
24.48
25.65
26.20
25.87
24.35
21.53
17.62
13.39
9.98
8.57
9.84
13.77
19.49
25.57
30.40
32.70
31.77
27.64
20.84
12.28
2.92
-6.29
-14.48
-20.91
-25.01
-26.49
-25.53
-22.71
-18.98
-15.39
-12.76
-11.45
-11.33
-11.99
-13.04
-14.41
-16.34
-19.25
-23.31
-28.28
-33.46
-38.00
-41.27
-43.15
-44.00
-44.43
-45.01
-46.01
-47.37
-48.82
-50.07
-50.92
-51.42
-51.74
-52.23
-53.21
-54.95
-57.54
-60.76
-64.11
-66.89
-68.30
-67.75
-64.96
-60.09
-53.66
-46.41
-39.05
-32.04
-25.50
-19.22
-12.86
-6.12
1.07
8.51
15.78
22.35
27.84
32.06
35.13
37.37
39.13
40.64
41.90
42.68
42.63
41.47
39.05
35.40
30.67
25.07
18.82
12.23
5.74
-0.06
-4.64
-7.75
-9.66
-11.19
-13.54
-17.83
-24.72
-34.18
-45.47
-57.43
-68.80
-78.57
-86.34
-92.46
-97.88
-103.75
-110.92
-119.41
-128.29
-136.04
-141.23
-143.25
-142.69
-141.00
-139.76
-139.84
-141.05
-142.23
-141.84
-138.54
-131.50
-120.33
-105.04
-85.93
-63.48
-38.36
-11.09
18.59
52.06
91.58
138.95
193.55
250.92
302.90
339.76
353.35
340.03
301.92
246.02
181.80
118.59
63.63
21.41
-6.03
-18.66
-18.03
-7.20
9.45
26.78
39.79
44.80
40.31
27.36
9.34
-9.03
-23.21
-30.35
-30.21
-25.08
-18.68
-14.72
-15.42
-20.81
-28.63
-34.97
-35.27
-25.61
-4.13
28.08
66.75
105.44
137.38
157.40
163.21
155.27
135.48
105.53
65.92
16.60
-41.27
-103.42
-162.04
-207.44
-231.26
-229.70
-204.92
-164.12
-116.32
-68.88
-25.15
15.74
57.44
104.08
158.33
219.91
285.25
347.94
400.13
434.66
447.27
438.06
411.18
373.16
330.32
286.98
244.99
204.57
165.71
128.74
93.94
60.78
27.54
-7.82
-46.26
-86.48
-125.07
-157.84
-181.57
-195.39
-200.95
-201.26
-199.20
-196.42
-193.05
-188.38
-181.85
-173.71
-165.13
-157.74
-152.88
-151.10
-152.16
-155.33
-159.99
-166.06
-174.36
-186.27
-203.31
-226.54
-256.12
-291.09
-329.07
-366.26
-397.61
-417.65
-421.77
-407.61
-375.87
-330.11
-275.54
-217.40
-159.71
-104.89
-53.98
-7.42
34.71
72.76
107.83
142.09
178.80
221.69
273.72
335.66
404.43
472.75
530.42
567.35
577.05
559.12
519.22
466.59
410.29
356.05
305.42
256.97
208.52
158.79
107.78
56.20
4.89
-45.13
-92.22
-133.65
-166.14
-187.03
-195.35
-192.51
-181.92
-167.80
-153.94
-142.84
-135.48
-131.50
-129.71
-128.48
-126.17
-121.54
-114.07
-104.18
-93.00
-81.92
-72.07
-63.89
-57.04
-50.71
-44.04
-36.45
-27.80
-18.42
-8.95
-0.27
6.66
11.04
12.47
11.13
7.76
3.34
-1.28
-5.74
-10.22
-15.26
-21.39
-28.77
-37.07
-45.41
-52.65
-57.52
-58.90
-56.07
-48.85
-37.84
-24.28
-9.90
3.55
14.66
22.85
28.44
32.46
36.10
40.10
44.31
47.72
49.13
47.51
43.07
37.27
32.30
30.18
31.69
35.93
40.56
43.09
41.25
34.73
25.11
15.10
7.52
4.05
4.69
7.82
10.96
9.73
-0.41
-23.43
-60.98
-110.67
-165.54
-215.29
-249.52
-260.75
-248.47
-217.29
-174.71
-127.41
-78.71
-28.25
25.94
80.29
135.56
185.27
222.19
241.00
240.52
224.27
199.05
172.51
150.71
137.52
132.94
135.78
144.32
157.06
172.54
188.86
203.35
212.89
215.22
208.55
193.13
170.78
144.14
115.49
85.95
55.20
21.84
-15.48
-57.92
-105.02
-154.72
-203.70
-248.19
-284.89
-311.67
-327.98
-334.44
-332.77
-324.67
-311.33
-293.20
-270.16
-242.05
-209.21
-172.86
-135.11
-98.55
-65.40
-36.70
-12.13
9.70
30.24
49.97
68.01
82.48
91.59
94.67
92.61
87.36
81.12
75.42
70.81
67.17
64.08
61.36
58.90
56.56
53.90
50.30
45.32
38.98
31.93
25.13
19.46
15.29
12.39
10.05
7.40
3.74
-1.25
-7.35
-13.87
-19.80
-24.11
-26.04
-25.39
-22.53
-18.12
-12.79
-6.80
0.04
7.99
17.05
26.65
35.64
42.74
46.92
47.84
45.94
42.24
37.99
34.27
31.72
30.58
30.70
31.85
33.79
36.31
39.18
42.08
44.59
46.29
46.83
46.00
43.68
39.77
34.22
27.15
18.97
10.40
2.27
-4.78
-10.58
-15.52
-20.30
-25.66
-32.04
-39.52
-47.75
-56.11
-63.70
-69.46
-72.29
-71.26
-65.95
-56.65
-44.44
-30.87
-17.63
-5.96
3.56
11.09
17.25
22.74
27.96
32.90
37.30
40.90
43.62
45.65
47.31
48.87
50.58
52.61
55.22
58.66
63.04
68.15
73.39
77.87
80.73
81.42
79.79
76.11
70.88
64.67
57.95
50.96
43.64
35.64
26.36
15.16
1.68
-13.96
-30.89
-47.51
-61.83
-71.93
-76.55
-75.49
-69.72
-61.06
-51.63
-43.25
-36.96
-32.99
-30.99
-30.40
-30.70
-31.50
-32.39
-32.92
-32.69
-31.53
-29.76
-28.08
-27.37
-28.28
-30.94
-34.93
-39.38
-43.23
-45.55
-45.73
-43.72
-40.17
-36.27
-33.47
-32.92
-35.05
-39.34
-44.59
-49.44
-52.89
-54.68
-55.14
-54.90
-54.47
-54.00
-53.23
-51.63
-48.54
-43.45
-36.10
-26.68
-15.79
-4.41
6.39
15.75
23.23
28.92
33.30
37.01
40.59
44.23
47.71
50.45
51.86
51.52
49.48
46.27
42.74
39.79
38.07
37.79
38.69
40.04
40.87
40.16
37.17
31.61
23.87
15.02
6.48
-0.36
-4.68
-6.44
-6.38
-5.62
-5.31
-6.24
-8.76
-12.80
-18.05
-23.86
-29.26
-33.00
-33.79
-30.78
-23.90
-14.20
-3.45
6.35
13.68
17.97
19.62
19.70
19.38
19.56
20.59
22.37
24.52
26.66
28.58
30.31
32.04
33.99
36.26
38.74
41.18
43.25
44.74
45.56
45.75
45.44
44.69
43.57
42.10
40.30
38.30
36.26
34.39
32.88
31.77
30.97
30.12
28.72
26.15
21.85
15.49
7.06
-3.10
-14.29
-25.61
-36.00
-44.52
-50.49
-53.63
-54.23
-52.98
-50.77
-48.39
-46.25
-44.27
-41.95
-38.72
-34.31
-28.93
-23.26
-18.15
-14.21
-11.50
-9.59
-7.78
-5.50
-2.60
0.58
3.38
5.20
5.66
4.77
2.81
0.16
-2.84
-5.88
-8.68
-10.90
-12.19
-12.32
-11.36
-9.82
-8.48
-8.12
-9.19
-11.59
-14.76
-17.95
-20.53
-22.23
-23.14
-23.57
-23.99
-24.91
-26.78
-29.92
-34.31
-39.41
-44.20
-47.39
-47.84
-45.03
-39.29
-31.67
-23.54
-16.14
-10.19
-5.89
-3.02
-1.26
-0.41
-0.34
-0.90
-1.81
-2.59
-2.79
-2.16
-0.82
0.79
2.11
2.78
2.80
2.46
2.18
2.28
2.76
3.25
3.15
1.78
-1.33
-6.29
-12.76
-20.14
-27.80
-35.37
-42.78
-50.12
-57.33
-64.09
-69.79
-73.88
-76.24
-77.42
-78.51
-80.70
-84.50
-89.22
-92.73
-92.18
-84.91
-69.48
-45.89
-15.18
21.57
63.97
112.14
165.54
221.84
276.28
322.60
354.81
369.23
365.25
344.96
311.67
269.00
220.99
173.11
132.95
109.35
109.67
136.30
184.36
242.17
294.92
329.69
339.70
325.65
293.96
253.07
209.76
167.52
126.83
86.93
47.33
8.39
-29.01
-64.12
-96.86
-127.46
-156.09
-182.25
-204.67
-221.70
-231.91
-234.86
-231.44
-223.77
-214.52
-205.95
-199.29
-194.44
-190.33
-185.73
-179.87
-172.68
-164.74
-156.68
-148.86
-141.25
-133.60
-125.62
-117.29
-108.80
-100.47
-92.54
-85.14
-78.10
-71.15
-64.00
-56.55
-48.86
-41.24
-33.97
-27.30
-21.37
-16.35
-12.43
-9.85
-8.74
-8.99
-10.17
-11.58
-12.57
-12.74
-12.15
-11.24
-10.58
-10.61
-11.40
-12.74
-14.28
-15.86
-17.58
-19.87
-23.23
-27.95
-33.89
-40.36
-46.28
-50.41
-51.73
-49.73
-44.55
-36.92
-27.85
-18.30
-8.99
-0.31
7.58
14.58
20.53
25.24
28.57
30.53
31.34
31.34
30.87
30.14
29.21
28.05
26.62
24.99
23.28
21.63
20.11
18.74
17.50
16.37
15.40
14.56
13.81
12.93
11.71
10.00
7.83
5.41
2.97
0.69
-1.43
-3.57
-6.00
-8.86
-12.19
-15.86
-19.72
-23.67
-27.70
-31.83
-35.94
-39.63
-42.21
-42.74
-40.34
-34.48
-25.21
-13.26
0.03
12.96
23.73
30.88
33.57
31.84
26.60
19.41
12.12
6.33
3.07
2.60
4.59
8.32
13.01
18.01
22.85
27.30
31.15
34.26
36.49
37.71
37.87
36.96
35.08
32.40
29.13
25.54
21.86
18.30
14.97
11.85
8.82
5.74
2.47
-1.00
-4.64
-8.37
-12.23
-16.34
-20.92
-26.04
-31.58
-37.11
-41.95
-45.37
-46.83
-46.03
-43.06
-38.22
-31.98
-24.88
-17.41
-10.04
-3.19
2.78
7.51
10.77
12.41
12.55
11.50
9.86
8.30
7.28
6.97
7.06
7.10
6.71
5.89
5.01
4.53
4.66
5.11
5.15
3.87
0.55
-5.04
-12.46
-20.51
-27.32
-30.61
-28.27
-19.10
-3.52
16.23
36.65
53.99
65.47
69.96
67.92
60.79
50.21
37.49
23.65
9.71
-3.09
-13.38
-19.95
-22.25
-20.55
-15.94
-9.96
-4.05
0.78
4.28
6.81
9.15
12.03
15.82
20.34
24.99
28.99
31.78
33.20
33.58
33.56
33.77
34.61
36.17
38.32
40.89
43.78
47.00
50.42
53.66
55.97
56.44
54.23
48.94
40.79
30.56
19.39
8.48
-1.17
-8.99
-14.90
-19.34
-23.16
-27.39
-32.90
-40.08
-48.55
-57.21
-64.53
-68.96
-69.40
-65.55
-58.03
-48.27
-38.14
-29.61
-24.20
-22.66
-24.84
-29.73
-35.92
-41.90
-46.47
-48.91
-48.85
-46.24
-41.16
-33.92
-25.12
-15.71
-6.82
0.60
5.99
9.35
11.08
11.67
11.45
10.58
9.14
7.38
5.71
4.51
3.91
3.57
2.74
0.56
-3.50
-9.35
-16.18
-22.80
-28.00
-30.98
-31.58
-30.33
-28.23
-26.47
-26.07
-27.57
-30.91
-35.34
-39.61
-42.22
-41.91
-38.03
-30.73
-20.98
-10.18
0.27
9.36
16.64
22.09
25.94
28.42
29.75
30.19
30.13
30.08
30.53
31.66
33.26
34.78
35.58
35.27
33.82
31.59
29.07
26.65
24.39
22.08
19.34
15.86
11.54
6.58
1.44
-3.23
-6.77
-8.65
-8.71
-7.23
-4.92
-2.64
-1.27
-1.43
-3.50
-7.59
-13.60
-21.15
-29.47
-37.41
-43.54
-46.48
-45.37
-40.17
-31.88
-22.28
-13.47
-7.26
-4.68
-5.67
-8.98
-12.37
-12.98
-7.99
4.58
25.08
51.81
81.17
108.39
128.80
139.11
138.36
127.96
111.02
91.13
71.24
53.14
37.50
24.46
14.08
6.62
2.27
0.81
1.39
2.64
3.18
2.20
-0.40
-4.11
-8.33
-12.72
-17.37
-22.61
-28.66
-35.37
-42.13
-47.95
-51.74
-52.60
-50.03
-43.99
-34.71
-22.42
-7.17
10.97
31.60
53.50
74.56
92.21
104.19
109.31
107.78
100.97
90.81
79.16
67.51
56.94
48.22
41.66
36.93
32.88
27.83
20.28
9.73
-2.90
-15.66
-26.37
-33.60
-37.22
-38.10
-37.60
-36.82
-36.32
-36.27
-36.79
-38.13
-40.64
-44.44
-49.17
-54.04
-58.16
-60.96
-62.42
-63.16
-64.10
-66.10
-69.55
-74.20
-79.12
-83.09
-84.97
-84.07
-80.30
-74.01
-65.72
-55.93
-45.02
-33.39
-21.51
-10.04
0.26
8.71
14.84
18.57
20.31
20.91
21.47
22.95
25.91
30.24
35.20
39.78
43.03
44.43
43.99
42.15
39.52
36.69
34.06
31.82
29.96
28.35
26.78
25.02
22.99
20.73
18.45
16.41
14.76
13.41
11.93
9.70
6.09
0.74
-6.28
-14.38
-22.61
-29.98
-35.57
-38.78
-39.35
-37.39
-33.27
-27.53
-20.84
-13.83
-7.02
-0.80
4.52
8.70
11.54
12.92
12.87
11.67
9.85
8.00
6.70
6.28
6.72
7.77
8.97
9.82
9.91
8.98
6.95
3.96
0.29
-3.66
-7.50
-10.88
-13.61
-15.53
-16.57
-16.59
-15.54
-13.51
-10.88
-8.41
-7.17
-8.32
-12.79
-20.85
-31.77
-43.84
-54.61
-61.59
-62.94
-58.00
-47.46
-33.03
-16.95
-1.35
12.13
22.78
30.96
38.24
47.02
59.83
78.12
101.35
126.64
149.56
165.56
171.66
167.28
154.11
135.04
112.95
90.06
67.94
47.87
31.13
18.74
10.91
6.58
3.63
-0.34
-6.93
-16.29
-27.12
-37.42
-45.53
-50.75
-53.54
-54.99
-56.16
-57.60
-59.17
-60.30
-60.35
-59.02
-56.50
-53.54
-51.32
-51.17
-54.23
-60.97
-70.91
-82.49
-93.39
-101.08
-103.61
-100.20
-91.38
-78.72
-64.20
-49.49
-35.65
-23.11
-12.02
-2.52
5.07
10.48
13.78
15.52
16.80
18.74
22.08
26.81
32.27
37.41
41.35
43.66
44.40
43.97
42.83
41.27
39.46
37.47
35.34
33.10
30.71
27.96
24.62
20.47
15.60
10.26
4.90
-0.15
-4.77
-9.13
-13.54
-18.29
-23.48
-28.87
-34.00
-38.18
-40.69
-40.92
-38.48
-33.33
-25.81
-16.66
-6.82
2.74
11.23
18.21
23.61
27.66
30.77
33.37
35.79
38.19
40.56
42.75
44.63
46.18
47.62
49.30
51.56
54.47
57.80
60.91
63.04
63.57
62.21
59.10
54.66
49.42
43.83
38.21
32.66
27.17
21.64
15.90
9.81
3.20
-4.04
-11.95
-20.43
-29.26
-38.04
-46.29
-53.56
-59.60
-64.38
-68.04
-70.78
-72.63
-73.51
-73.26
-71.82
-69.35
-66.16
-62.58
-58.75
-54.60
-49.87
-44.34
-37.99
-31.03
-23.98
-17.46
-12.12
-8.56
-7.11
-7.68
-9.77
-12.52
-15.04
-16.75
-17.47
-17.42
-16.87
-15.91
-14.32
-11.74
-7.95
-3.07
2.45
8.00
13.13
17.66
21.59
24.97
27.70
29.64
30.73
31.13
31.31
31.78
32.84
34.29
35.45
35.37
33.24
28.71
22.03
14.01
5.83
-1.23
-5.97
-7.52
-5.43
0.16
8.53
18.49
28.75
38.26
46.47
53.38
59.30
64.42
68.55
71.03
70.96
67.63
60.84
51.05
39.23
26.58
14.14
2.59
-7.72
-16.75
-24.57
-31.35
-37.33
-42.71
-47.59
-51.90
-55.35
-57.55
-58.25
-57.44
-55.44
-52.78
-49.93
-47.14
-44.39
-41.56
-38.56
-35.50
-32.63
-30.30
-28.74
-28.17
-28.73
-30.63
-34.05
-38.92
-44.81
-50.78
-55.56
-57.95
-57.17
-53.22
-46.81
-39.05
-31.00
-23.37
-16.27
-9.49
-2.66
4.36
11.42
18.12
24.00
28.79
32.46
35.20
37.21
38.59
39.28
39.14
38.07
36.16
33.74
31.26
29.14
27.54
26.27
24.85
22.73
19.53
15.31
10.46
5.58
1.15
-2.75
-6.39
-10.19
-14.47
-19.18
