1676917415.00
64.000000
-0.00
-0.00
-0.00
-0.00
-0.00
-0.00
-0.00
-0.00
-0.00
-0.00
0.00
0.01
0.01
-0.00
-0.03
-0.05
-0.05
0.00
0.13
0.36
0.66
1.01
1.37
1.72
2.06
2.40
2.79
3.24
3.80
4.42
5.06
5.66
6.20
6.68
7.15
7.68
8.31
9.14
10.09
11.04
11.88
12.56
13.14
13.76
14.65
15.96
17.91
20.32
22.90
25.38
27.58
29.57
31.68
34.32
37.81
42.54
48.15
54.10
59.83
64.97
69.58
74.14
79.34
85.71
93.76
103.00
112.62
121.73
129.77
136.75
143.30
150.75
157.77
166.64
177.95
191.79
206.97
220.57
228.25
225.36
208.53
176.87
132.76
80.05
23.07
-34.94
-92.44
-149.16
-205.23
-260.37
-313.74
-363.87
-409.83
-450.91
-486.50
-515.74
-537.23
-549.22
-549.96
-538.37
-514.21
-478.67
-433.88
-382.45
-327.02
-269.84
-212.63
-156.66
-102.95
-52.37
-5.90
35.58
71.43
101.35
125.50
144.38
158.69
169.15
176.37
180.75
182.57
182.07
179.51
175.23
169.65
163.18
156.15
148.81
141.30
133.69
126.02
118.33
110.69
103.16
95.80
88.68
81.83
75.25
68.95
62.95
57.25
51.86
46.78
42.03
37.59
33.45
29.61
26.07
22.81
19.83
17.11
14.67
12.48
10.54
8.83
7.35
6.07
4.97
4.05
3.27
2.62
2.09
1.65
1.30
1.01
0.79
0.61
0.47
0.37
0.29
0.23
0.18
0.16
0.14
0.14
0.14
0.15
0.17
0.20
0.23
0.27
0.31
0.35
0.39
0.44
0.48
0.53
0.58
0.63
0.69
0.75
0.81
0.88
0.96
1.04
1.13
1.24
1.35
1.48
1.62
1.79
1.97
2.17
2.39
2.64
2.91
3.22
3.55
3.91
4.30
4.74
5.20
5.71
6.25
6.84
7.46
8.13
8.84
9.60
10.40
11.25
12.14
13.08
14.07
15.12
16.23
17.42
18.65
19.92
21.20
22.41
23.49
24.33
24.81
24.79
24.18
22.89
20.86
18.12
14.72
10.75
6.41
1.88
-2.61
-6.85
-10.65
-13.85
-16.36
-18.12
-19.14
-19.44
-19.14
-18.33
-17.14
-15.68
-14.08
-12.42
-10.76
-9.11
-7.42
-5.72
-3.97
-2.16
-0.31
1.55
3.38
5.20
7.01
8.94
10.95
13.07
15.32
17.67
20.08
22.49
24.87
27.33
30.06
32.99
36.15
39.54
43.05
46.48
49.66
52.51
55.16
58.08
61.28
64.91
69.04
73.43
77.66
81.26
83.91
85.71
87.23
88.56
89.92
91.22
91.84
90.62
86.11
76.81
61.09
42.37
22.25
1.98
-17.76
-37.01
-56.31
-76.51
-98.48
-122.87
-149.81
-179.18
-209.34
-237.20
-258.86
-270.81
-271.36
-261.38
-244.05
-223.40
-203.21
-185.01
-168.16
-150.73
-130.91
-108.04
-82.72
-56.37
-30.45
-6.46
14.59
31.91
44.89
53.18
56.92
56.94
54.66
51.82
49.81
49.59
51.39
54.84
58.96
62.62
64.69
64.39
61.43
55.95
48.52
39.82
30.54
21.16
11.96
3.16
-5.01
-12.20
-17.99
-22.03
-24.24
-25.00
-25.15
-25.62
-26.96
-28.90
-30.22
-29.24
-24.52
-15.68
-3.71
9.33
21.09
29.92
35.42
38.35
40.06
41.71
43.75
46.03
48.07
49.68
51.01
52.49
54.39
56.51
58.15
58.43
56.67
52.70
46.86
39.75
31.90
23.55
14.73
5.47
-3.90
-12.70
-19.91
-24.55
-26.16
-25.24
-23.45
-23.28
-27.29
-37.02
-52.09
-69.93
-86.35
-96.81
-97.71
-87.57
-67.29
-39.72
-8.84
21.24
46.82
65.03
73.97
72.94
62.73
45.75
25.78
7.20
-6.14
-12.03
-10.42
-3.15
7.03
17.56
26.85
34.33
39.91
43.40
44.23
41.73
35.62
26.41
15.40
4.26
-5.61
-13.47
-19.30
-23.66
-27.33
-31.10
-35.65
-41.33
-48.12
-55.42
-62.20
-67.10
-68.86
-66.56
-59.86
-48.99
-34.70
-18.17
-0.86
15.68
30.00
40.97
48.06
51.24
51.02
48.20
43.67
38.28
32.83
27.95
24.16
21.76
20.72
20.65
20.81
20.25
18.22
14.43
9.36
4.13
0.05
-1.97
-1.86
-0.43
1.05
1.45
0.20
-2.67
-6.91
-12.41
-19.34
-27.86
-37.69
-47.81
-56.52
-61.93
-62.58
-57.92
-48.48
-35.70
-21.52
-7.84
3.80
12.59
18.34
21.39
22.29
21.52
19.47
16.50
13.18
10.41
9.24
10.57
14.73
21.19
28.72
35.69
40.52
42.09
39.89
34.13
25.60
15.46
4.99
-4.73
-12.98
-19.49
-24.44
-28.19
-31.30
-34.33
-37.76
-41.85
-46.61
-51.67
-56.34
-59.62
-60.42
-57.67
-50.58
-38.82
-22.84
-3.94
15.81
33.96
48.31
57.37
60.75
59.08
53.82
46.85
40.12
35.29
33.45
34.78
38.50
42.97
46.32
47.02
44.45
39.01
31.86
24.31
17.38
11.57
7.00
3.62
1.32
-0.08
-0.97
-2.05
-4.18
-8.12
-14.19
-22.13
-31.13
-40.05
-47.64
-52.77
-54.47
-52.15
-45.65
-35.39
-22.40
-8.19
5.48
16.92
24.84
28.55
28.05
23.97
17.41
9.78
2.49
-3.29
-6.80
-7.84
-6.70
-4.05
-0.64
2.84
6.03
8.73
10.90
12.33
12.69
11.66
9.23
5.95
2.81
0.74
0.22
0.83
1.41
0.51
-2.85
-8.68
-15.81
-22.19
-25.54
-23.98
-16.75
-4.52
10.75
26.23
39.19
47.71
51.15
50.10
45.69
39.08
31.04
22.08
12.75
3.86
-3.59
-8.76
-11.18
-10.72
-7.37
-1.03
8.43
20.71
34.69
48.34
59.20
65.15
65.18
59.70
50.25
38.84
27.14
16.02
5.59
-4.52
-14.71
-25.12
-35.66
-46.01
-55.70
-64.02
-69.82
-71.65
-68.15
-58.67
-43.86
-25.69
-6.92
9.81
22.75
31.29
35.75
36.86
35.33
31.76
26.83
21.39
16.50
13.10
11.65
12.04
13.68
15.85
17.93
19.65
20.91
21.60
21.48
20.25
17.63
13.54
8.18
1.95
-4.61
-10.98
-16.63
-21.14
-24.20
-25.77
-26.12
-25.87
-25.86
-26.90
-29.57
-34.13
-40.59
-48.65
-57.69
-66.71
-74.21
-78.44
-77.85
-71.67
-60.39
-45.70
-29.99
-15.47
-3.42
6.00
13.28
18.82
22.34
23.01
20.07
13.70
5.44
-2.16
-6.52
-6.13
-1.17
6.68
15.02
21.73
25.60
26.47
24.95
21.88
18.06
14.10
10.46
7.47
5.28
3.78
2.58
1.16
-0.83
-3.41
-6.17
-8.46
-9.73
-9.77
-8.92
-8.01
-8.17
-10.45
-15.41
-22.68
-30.82
-37.47
-39.95
-36.15
-25.40
-8.82
10.97
30.71
47.56
59.80
66.91
69.10
66.73
60.04
49.31
35.41
20.15
6.17
-3.77
-7.79
-5.65
1.03
9.40
16.41
19.98
19.53
15.94
10.92
6.14
2.69
0.72
-0.26
-1.03
-2.15
-3.81
-5.83
-7.97
-10.19
-12.77
-16.20
-20.91
-27.01
-34.29
-42.33
-50.71
-58.97
-66.40
-71.75
-73.28
-69.24
-58.76
-42.65
-23.34
-4.23
11.72
22.99
29.72
32.94
33.46
31.10
24.97
14.54
0.54
-14.61
-27.72
-36.20
-39.29
-38.30
-35.95
-35.04
-37.27
-42.84
-50.69
-59.42
-68.03
-76.37
-85.12
-95.33
-107.93
-123.20
-140.62
-158.99
-176.73
-192.28
-204.38
-212.27
-215.99
-216.81
-217.36
-221.07
-230.68
-246.46
-265.24
-280.94
-286.81
-278.24
-254.77
-220.13
-180.28
-140.62
-103.89
-69.81
-36.22
-0.90
37.17
77.49
118.62
158.64
195.73
228.56
256.61
280.67
303.19
328.14
359.97
401.86
453.55
510.25
563.18
601.93
618.01
607.61
572.94
520.90
460.55
400.03
344.78
297.07
256.83
222.66
192.57
164.66
137.91
113.09
93.02
81.45
80.82
89.70
102.31
109.99
104.83
83.61
50.07
14.08
-11.54
-15.66
7.26
55.42
120.34
189.37
249.06
288.58
302.16
290.49
260.89
225.60
198.61
191.30
208.22
245.03
289.48
325.70
339.90
325.14
282.89
221.16
150.55
80.43
17.24
-35.33
-74.98
-99.93
-109.34
-104.10
-87.40
-64.22
-39.72
-17.56
1.04
16.91
32.00
47.72
63.99
79.20
90.88
96.84
96.05
88.92
76.86
61.42
43.36
22.32
-2.95
-33.83
-70.88
-113.27
-158.74
-204.25
-246.80
-284.26
-315.67
-341.08
-361.10
-376.32
-387.10
-393.72
-396.82
-397.76
-398.63
-401.89
-409.62
-422.77
-440.86
-462.32
-485.05
-507.34
-528.43
-548.56
-568.76
-590.63
-616.13
-647.07
-684.04
-725.14
-765.14
-796.07
-809.44
-799.38
-765.12
-711.43
-646.73
-579.84
-517.02
-460.80
-410.87
-365.90
-325.12
-288.68
-256.90
-229.35
-204.50
-180.30
-155.19
-128.81
-102.10
-76.86
-54.75
-36.53
-21.83
-9.40
2.28
14.25
26.73
39.04
50.02
58.63
64.47
67.86
69.80
71.48
73.86
77.33
81.66
86.20
90.21
93.23
95.28
96.81
98.62
101.39
105.58
111.14
117.64
124.44
130.96
136.93
142.53
148.35
155.13
163.51
173.76
185.68
198.71
212.12
225.29
237.95
250.30
263.00
277.09
293.74
313.83
337.24
362.34
386.01
404.26
413.43
411.37
398.09
375.62
347.21
316.19
285.19
255.84
228.96
204.96
183.95
165.66
149.18
133.02
115.59
96.05
74.85
53.69
34.68
19.12
6.83
-3.54
-13.29
-22.19
-28.18
-28.58
-21.99
-9.39
6.31
22.21
37.19
52.14
68.26
84.81
98.18
103.36
97.10
80.55
59.43
41.26
31.31
29.85
32.42
32.76
26.51
13.35
-3.51
-19.67
-32.24
-40.93
-47.49
-53.83
-60.41
-65.50
-65.98
-59.12
-44.09
-22.81
0.53
21.03
35.01
41.48
42.39
41.69
43.58
50.74
63.43
79.73
96.36
110.10
118.57
120.54
115.72
104.48
87.40
65.24
39.29
11.69
-14.63
-36.93
-53.89
-66.35
-76.72
-87.15
-97.46
-104.51
-103.60
-91.42
-68.45
-39.32
-10.58
12.74
29.51
42.44
55.57
71.25
88.45
103.51
112.57
113.94
108.79
100.38
92.18
86.12
81.93
77.91
72.23
64.01
53.87
43.40
34.38
27.88
23.97
21.94
20.79
19.72
18.30
16.43
14.18
11.79
9.51
7.65
6.36
5.52
4.70
3.20
0.38
-4.14
-10.27
-17.49
-24.99
-31.78
-36.79
-39.01
-37.70
-32.57
-24.00
-13.01
-0.99
10.60
20.63
28.52
34.20
37.95
40.26
41.57
42.22
42.49
42.57
42.59
42.59
42.48
42.10
41.32
40.00
38.18
35.99
33.53
30.78
27.48
23.24
17.64
10.51
2.06
-7.17
-16.41
-25.02
-32.55
-38.93
-44.41
-49.41
-54.44
-59.80
-65.41
-70.65
-74.35
-75.07
-71.51
-62.98
-49.76
-33.14
-15.10
2.17
16.73
27.33
33.56
35.78
34.87
31.94
28.05
24.02
20.26
16.90
13.77
10.66
7.37
3.90
0.42
-2.79
-5.44
-7.42
-8.78
-9.77
-10.73
-11.92
-13.44
-15.22
-17.14
-19.00
-20.65
-21.88
-22.52
-22.40
-21.54
-20.25
-19.14
-18.92
-20.11
-22.64
-25.75
-28.17
-28.63
-26.36
-21.37
-14.45
-6.73
0.74
7.31
12.74
17.07
20.24
21.98
21.86
19.59
15.31
9.79
4.31
0.21
-1.59
-1.00
1.20
3.76
5.47
5.64
4.35
2.12
-0.39
-2.81
-5.22
-7.90
-11.09
-14.75
-18.52
-21.96
-24.79
-27.17
-29.53
-32.22
-35.11
-37.40
-37.83
-35.24
-29.15
-20.13
-9.59
0.83
9.84
16.79
21.60
24.34
24.87
22.90
18.28
11.30
2.82
-5.95
-13.91
-20.41
-25.35
-28.98
-31.67
-33.61
-34.89
-35.62
-36.03
-36.51
-37.53
-39.55
-42.92
-47.95
-54.83
-63.64
-74.20
-86.04
-98.54
-111.15
-123.65
-136.25
-149.31
-163.12
-177.58
-192.33
-206.94
-221.02
-233.96
-244.67
-251.24
-251.30
-242.53
-223.57
-194.49
-156.87
-113.11
-65.98
-18.44
26.06
62.98
86.59
90.78
71.21
27.77
-33.50
-100.66
-158.72
-194.21
-199.65
-176.01
-131.61
-78.61
-28.17
13.11
44.16
68.09
89.86
113.99
143.26
178.10
216.23
252.63
280.41
292.80
285.93
260.89
223.54
182.54
146.11
119.61
104.90
101.67
109.22
127.37
156.22
194.99
241.59
292.96
345.75
396.83
442.90
479.89
503.10
508.38
493.71
460.47
413.00
356.95
297.08
236.22
175.81
117.46
64.18
19.91
-12.34
-32.77
-45.63
-57.96
-76.74
-105.92
-144.95
-189.38
-233.38
-272.44
-304.84
-331.21
-352.80
-369.44
-378.66
-376.44
-359.03
-324.99
-276.10
-216.85
-152.66
-87.56
-22.81
42.74
110.89
181.75
252.23
316.30
367.02
399.05
410.59
403.57
382.37
351.78
315.50
275.85
234.48
193.35
155.04
122.18
96.24
76.58
60.52
44.35
24.76
-0.21
-30.97
-66.83
-106.34
-147.38
-186.88
-220.79
-244.79
-255.59
-252.18
-236.47
-212.55
-185.27
-158.70
-135.23
-115.61
-99.70
-87.20
-78.00
-72.08
-69.13
-68.34
-68.55
-68.58
-67.66
-65.63
-62.83
-59.67
-56.41
-52.99
-49.21
-44.99
-40.56
-36.46
-33.25
-31.35
-30.79
-31.37
-32.76
-34.69
-36.96
-39.46
-42.18
-45.24
-48.89
-53.30
-58.35
-63.29
-66.82
-67.30
-63.40
-54.60
-41.49
-25.71
-9.39
5.40
17.14
25.07
29.04
29.32
26.39
20.86
13.58
5.65
-1.65
-7.13
-9.94
-9.80
-7.10
-2.67
2.46
7.32
11.17
13.54
14.28
13.46
11.33
8.26
4.61
0.66
-3.47
-7.80
-12.46
-17.65
-23.60
-30.39
-37.84
-45.25
-51.36
-54.53
-53.33
-47.05
-36.20
-22.37
-7.82
5.28
15.43
22.08
25.38
25.86
24.04
20.35
15.29
9.55
4.08
-0.09
-2.18
-1.96
0.18
3.40
6.63
8.96
9.83
9.14
7.15
4.32
1.16
-1.99
-4.99
-7.85
-10.76
-13.87
-17.28
-20.95
-24.81
-28.75
-32.73
-36.69
-40.42
-43.40
-44.69
-43.10
-37.52
-27.52
-13.62
2.46
18.16
30.69
37.86
38.81
34.33
26.56
18.33
12.12
9.22
9.32
10.86
11.88
11.08
8.46
5.29
3.57
5.15
10.86
20.32
31.96
43.18
50.81
51.43
42.19
22.15
-6.17
-36.27
-58.98
-65.72
-52.49
-22.45
14.72
46.61
63.17
60.57
41.43
11.68
-24.17
-65.69
-115.44
-175.24
-241.93
-306.15
-355.13
-378.06
-370.40
-335.18
-280.73
-216.85
-152.34
-94.59
-50.98
-29.50
-36.99
-75.35
-138.33
-212.08
-279.16
-324.79
-341.67
-331.11
-300.15
-257.65
-211.15
-166.12
-127.32
-99.46
-86.55
-89.77
-106.22
-129.35
-151.19
-165.46
-168.82
-161.78
-147.36
-129.18
-109.74
-90.11
-70.50
-50.98
-31.75
-11.21
11.62
36.62
62.84
89.46
115.99
141.97
166.61
188.82
211.60
236.87
264.83
294.48
324.86
355.59
386.18
415.70
442.80
472.65
508.92
552.12
600.51
652.42
707.80
767.20
829.84
891.77
953.44
1009.48
1048.33
1056.79
1027.04
961.24
870.56
771.23
628.51
437.40
219.32
9.76
-163.56
-290.68
-374.54
-424.92
-454.69
-475.65
-493.84
-511.32
-527.46
-539.37
-543.25
-535.73
-517.64
-488.16
-452.15
-410.53
-364.36
-315.19
-264.73
-215.77
-170.78
-133.43
-107.26
-94.98
-92.35
-92.80
-90.83
-82.89
-69.48
-52.73
-37.29
-28.65
-32.25
-49.85
-80.85
-123.99
-172.81
-221.33
-252.43
-249.59
-204.94
-126.27
-34.01
48.26
99.48
119.09
113.36
92.67
66.13
38.90
15.74
-1.65
-12.81
-17.84
-16.75
-12.06
-6.49
-3.27
-4.50
-9.76
-16.48
-20.91
-20.80
-16.58
-12.94
-15.18
-27.33
-50.22
-81.35
-116.45
-150.82
-180.62
-202.67
-215.52
-218.33
-211.91
-199.40
-186.26
-179.14
-183.35
-200.53
-227.56
-257.74
-282.53
-294.23
-288.01
-262.88
-221.82
-170.72
-116.80
-66.91
-26.22
2.75
19.92
26.87
25.90
19.32
9.70
0.33
-4.92
-2.41
10.06
32.11
60.97
93.09
125.92
158.94
193.24
229.66
267.09
301.72
327.96
340.52
336.35
315.66
281.38
237.43
187.10
132.48
75.16
17.64
-35.82
-79.75
-109.25
-122.15
-120.14
-108.22
-92.78
-79.14
-70.06
-65.49
-63.81
-63.46
-63.99
-66.08
-70.73
-78.14
-86.98
-94.42
-97.07
-92.31
-79.44
-60.27
-38.50
-18.35
-2.92
6.93
12.67
16.98
22.30
29.61
38.12
45.93
50.99
51.90
48.03
39.35
26.04
8.26
-13.65
-38.57
-64.01
-85.79
-98.73
-98.26
-82.40
-53.28
-17.20
17.06
41.16
50.15
43.86
26.39
3.95
-17.62
-34.44
-44.90
-48.95
-47.27
-40.70
-30.04
-16.11
0.33
18.79
39.15
61.67
86.73
114.28
143.37
171.71
195.98
212.65
219.36
216.00
205.02
190.21
174.68
158.99
140.89
117.10
86.19
50.70
16.76
-8.79
-21.96
-23.79
-19.51
-15.35
-15.02
-18.09
-20.91
-19.60
-13.07
-4.27
0.56
-5.94
-29.75
-73.79
-136.78
-213.13
-293.64
-367.41
-424.61
-459.20
-470.52
-462.80
-442.85
-417.17
-389.87
-362.47
-334.91
-307.17
-280.06
-254.91
-232.48
-212.18
-192.06
-169.85
-144.15
-115.18
-84.53
-54.58
-27.28
-3.34
17.88
38.01
58.92
81.88
107.17
134.21
162.12
190.37
218.92
247.92
276.90
304.29
327.50
343.70
350.97
349.10
339.64
325.18
308.30
290.82
273.63
256.99
241.01
225.79
211.33
197.31
182.93
167.22
149.40
129.26
107.33
84.78
63.17
44.10
29.07
19.16
14.88
15.90
21.13
28.81
37.05
44.21
49.21
51.55
51.16
48.15
42.77
35.54
27.39
19.60
13.42
9.65
8.20
8.25
8.77
9.20
9.83
11.63
15.61
22.05
30.06
37.71
42.72
43.31
38.99
30.78
20.87
11.81
5.53
2.55
1.92
1.66
-0.34
-5.30
-13.24
-23.16
-33.55
-42.63
-48.46
-48.97
-42.44
-28.29
-7.87
15.50
37.49
54.29
64.02
67.18
65.84
62.32
57.95
52.81
46.33
38.20
28.93
19.70
11.79
5.90
1.96
-0.78
-3.29
-6.39
-10.37
-14.92
-19.57
-23.90
-27.88
-31.95
-36.68
-42.43
-49.05
-55.76
-61.36
-64.58
-64.39
-60.35
-52.64
-42.07
-29.79
-17.04
-4.83
6.15
15.47
22.76
27.56
29.37
27.86
23.19
16.17
8.21
0.95
-4.32
-7.02
-7.41
-6.30
-4.67
-3.24
-2.40
-2.20
-2.55
-3.43
-4.79
-6.64
-8.91
-11.46
-14.16
-16.97
-20.02
-23.56
-27.80
-32.69
-37.77
-42.06
-44.24
-43.05
-37.69
-28.23
-15.72
-1.97
10.95
21.23
27.70
29.99
28.34
23.46
16.24
7.64
-1.37
-9.95
-17.50
-23.69
-28.46
-31.93
-34.24
-35.49
-35.79
-35.40
-34.75
-34.30
-34.44
-35.33
-37.04
-39.48
-42.37
-44.81
-45.10
-40.93
-30.25
-12.33
11.51
38.14
63.84
85.84
103.34
117.36
129.66
141.36
152.21
160.85
165.83
166.48
163.27
157.48
150.38
142.67
134.32
124.84
113.85
101.43
88.27
75.48
64.15
54.93
47.85
42.33
37.55
32.81
27.79
22.58
17.50
12.86
8.76
5.14
1.75
-1.58
-4.91
-8.19
-11.23
-13.87
-16.04
-17.82
-19.39
-20.86
-22.19
-23.05
-22.99
-21.65
-18.89
-14.95
-10.37
-5.78
-1.70
1.56
3.83
5.11
5.43
4.94
3.92
2.69
1.59
0.75
0.15
-0.40
-1.13
-2.17
-3.45
-4.84
-6.22
-7.66
-9.38
-11.65
-14.53
-17.79
-20.86
-23.14
-24.22
-24.16
-23.42
-22.77
-22.86
-23.96
-25.88
-28.02
-29.70
-30.40
-30.00
-28.69
-26.93
-25.21
-23.87
-23.01
-22.54
-22.13
-21.50
-20.41
-18.84
-17.00
-15.20
-13.75
-12.85
-12.47
-12.43
-12.54
-12.63
-12.72
-12.87
-13.19
-13.74
-14.57
-15.68
-17.12
-18.85
-20.74
-22.65
-24.43
-26.06
-27.72
-29.65
-32.12
-35.26
-39.13
-43.85
-49.79
-57.57
-68.06
-82.15
-100.59
-123.55
-150.29
-178.82
-205.81
-227.09
-238.43
-236.75
-221.02
-192.73
-155.56
-114.47
-74.50
-39.72
-12.64
5.88
16.37
20.25
19.45
16.06
12.05
9.09
8.25
9.96
13.84
18.94
24.11
28.36
31.16
32.50
32.74
32.37
31.84
31.35
30.87
30.19
29.01
27.04
24.12
20.29
15.72
10.61
5.06
-0.89
-7.18
-13.48
-19.08
-22.88
-23.74
-20.80
-13.89
-3.73
8.25
20.26
30.60
38.06
42.11
42.80
40.68
36.47
30.98
24.99
19.19
14.19
10.41
8.01
6.85
6.59
6.78
7.03
7.15
7.07
6.76
6.11
4.90
2.91
0.08
-3.33
-6.86
-9.99
-12.38
-14.14
-15.74
-17.90
-21.24
-25.99
-31.79
-37.63
-42.02
-43.33
-40.35
-32.66
-20.88
-6.53
8.42
22.06
33.01
40.53
44.46
45.04
42.66
37.91
31.51
24.34
17.36
11.43
7.13
4.76
4.26
5.33
7.49
10.13
12.66
14.53
15.39
15.08
13.65
11.24
8.04
4.27
0.19
-3.93
-7.89
-11.63
-15.35
-19.35
-23.85
-28.62
-32.77
-35.00
-33.90
-28.66
-19.38
-7.21
6.10
18.64
28.90
36.04
39.75
40.15
37.60
32.65
26.04
18.72
11.69
5.84
1.71
-0.63
-1.41
-1.07
-0.06
1.25
2.54
3.55
3.97
3.61
2.37
0.39
-2.06
-4.74
-7.52
-10.53
-14.02
-18.27
-23.31
-28.88
-34.32
-38.64
-40.72
-39.54
-34.47
-25.54
-13.60
-0.13
13.03
24.17
32.07
36.21
36.72
34.18
29.42
23.36
16.91
10.82
5.69
1.93
-0.34
-1.18
-0.87
0.19
1.52
2.69
3.34
3.28
2.48
1.03
-0.95
-3.37
-6.28
-9.78
-13.91
-18.71
-23.98
-29.36
-34.24
-37.72
-38.79
-36.54
-30.45
-20.71
-8.21
5.57
18.97
30.51
39.12
44.23
45.67
43.64
38.68
31.61
23.51
15.58
8.85
3.98
1.12
0.04
0.20
1.03
2.02
2.80
3.17
3.06
2.47
1.42
-0.06
-2.03
-4.57
-7.79
-11.78
-16.55
-21.90
-27.28
-31.76
-34.15
-33.29
-28.51
-19.94
-8.62
3.82
15.56
25.13
31.68
34.99
35.26
32.91
28.48
22.62
16.14
9.97
4.97
1.71
0.30
0.41
1.41
2.63
3.53
3.87
3.66
3.03
2.09
0.86
-0.78
-3.04
-6.12
-10.19
-15.24
-21.12
-27.44
-33.55
-38.48
-41.05
-40.19
-35.27
-26.46
-14.80
-1.89
10.56
21.17
29.23
34.56
37.31
37.73
36.11
32.83
28.52
23.96
19.94
16.97
15.17
14.30
13.94
13.70
13.31
12.64
11.62
10.22
8.41
6.27
3.94
1.59
-0.60
-2.61
-4.59
-6.89
-9.98
-14.28
-19.89
-26.37
-32.58
-36.89
-37.61
-33.59
-24.72
-12.13
2.14
15.81
27.04
34.86
39.18
40.46
39.32
36.35
32.03
26.96
21.85
17.42
14.26
12.53
11.96
11.99
11.97
11.44
10.21
8.32
5.96
3.31
0.52
-2.34
-5.24
-8.17
-11.15
-14.17
-17.28
-20.54
-24.15
-28.33
-33.17
-38.45
-43.34
-46.48
-46.32
-41.65
-32.26
-19.18
-4.44
9.53
20.70
27.96
31.23
31.14
28.59
24.37
19.18
13.73
8.74
4.99
2.96
2.69
3.70
5.24
6.52
7.06
6.80
5.93
4.74
3.35
1.69
-0.46
-3.29
-6.85
-10.95
-15.18
-19.07
-22.19
-24.35
-25.73
-26.82
-28.32
-30.92
-34.89
-39.86
-44.69
-47.73
-47.31
-42.36
-32.93
-20.24
-6.32
6.71
17.20
24.36
28.12
28.87
27.12
23.50
18.94
14.72
12.41
13.31
17.98
25.97
35.93
46.18
55.35
62.70
68.15
71.95
74.28
75.06
73.98
70.81
65.59
58.71
50.86
42.78
35.06
28.03
21.71
15.87
10.14
4.04
-2.86
-10.88
-20.12
-30.28
-40.60
-49.80
-56.26
-58.48
-55.59
-47.72
-36.13
-22.87
-10.24
-0.05
6.60
9.51
9.00
5.66
0.07
-7.13
-15.21
-23.19
-30.01
-34.72
-36.73
-36.02
-33.07
-28.65
-23.58
-18.41
-13.47
-8.94
-4.96
-1.76
0.39
1.36
1.24
0.31
-1.07
-2.68
-4.47
-6.52
-8.83
-11.30
-13.75
-16.01
-18.17
-20.51
-23.28
-26.34
-29.03
-30.23
-28.80
-24.03
-16.01
-5.69
5.48
15.98
24.59
30.59
33.66
33.83
31.24
26.26
19.44
11.63
3.85
-2.91
-7.87
-10.63
-11.24
-10.11
-7.90
-5.28
-2.77
-0.60
1.29
3.13
5.11
7.19
9.12
10.48
10.86
10.11
8.34
5.88
3.09
0.20
-2.76
-5.88
-9.22
-12.63
-15.55
-17.09
-16.29
-12.47
-5.62
3.49
13.50
22.93
30.56
35.68
38.05
37.71
34.77
29.46
22.16
13.66
5.11
-2.18
-7.11
-9.09
-8.25
-5.36
-1.51
2.23
5.13
6.90
7.64
7.70
7.40
6.94
6.33
5.38
3.83
1.45
-1.97
-6.48
-11.96
-18.04
-24.01
-28.88
-31.52
-30.90
-26.54
-18.78
-8.73
1.89
11.28
18.10
21.73
22.30
20.44
16.92
12.36
7.27
2.06
-2.79
-6.68
-9.03
-9.50
-8.15
-5.52
-2.46
0.16
1.71
1.95
1.02
-0.73
-2.99
-5.60
-8.56
-11.95
-15.82
-20.11
-24.70
-29.43
-33.97
-37.79
-40.12
-40.09
-37.01
-30.76
-21.94
-11.73
-1.60
7.19
13.89
18.25
20.32
20.25
18.14
14.19
8.83
2.81
-2.97
-7.66
-10.80
-12.40
-12.80
-12.50
-11.85
-11.06
-10.18
-9.26
-8.37
-7.61
-7.09
-6.89
-7.08
-7.79
-9.15
-11.29
-14.14
-17.33
-20.16
-21.72
-21.14
-17.88
-11.93
-3.84
5.40
14.62
22.74
28.88
32.47
33.22
31.12
26.54
20.16
12.99
6.16
0.68
-2.84
-4.38
-4.40
-3.66
-2.93
-2.67
-3.00
-3.73
-4.56
-5.29
-5.88
-6.46
-7.27
-8.54
-10.46
-13.10
-16.37
-19.89
-22.98
-24.69
-24.12
-20.70
-14.47
-6.15
3.10
11.99
19.41
24.54
26.93
26.47
23.36
18.20
11.99
5.94
1.14
-1.75
-2.67
-2.12
-0.87
0.39
1.23
1.52
1.32
0.70
-0.26
-1.52
-3.03
-4.78
-6.79
-9.15
-12.00
-15.33
-18.84
-21.84
-23.41
-22.65
-19.09
-12.82
-4.58
4.49
13.14
20.27
25.11
27.29
26.78
23.92
19.36
14.00
8.75
4.40
1.34
-0.44
-1.28
-1.66
-1.97
-2.44
-3.10
-3.88
-4.66
-5.38
-6.05
-6.80
-7.89
-9.65
-12.32
-15.94
-20.09
-23.97
-26.46
-26.55
-23.58
-17.59
-9.23
0.36
9.90
18.25
24.49
28.05
28.69
26.55
22.20
16.55
10.67
5.58
1.90
-0.20
-0.93
-0.76
-0.13
0.59
1.13
1.31
0.99
0.12
-1.34
-3.31
-5.77
-8.73
-12.24
-16.30
-20.63
-24.62
-27.37
-27.91
-25.57
-20.23
-12.50
-3.44
5.64
13.59
19.55
23.06
23.90
22.16
18.17
12.63
6.51
0.89
-3.30
-5.65
-6.27
-5.76
-4.86
-4.21
-4.13
-4.64
-5.57
-6.72
-7.96
-9.23
-10.56
-12.12
-14.15
-16.93
-20.52
-24.52
-28.05
-29.86
-28.79
-24.20
-16.35
-6.29
4.48
14.47
22.55
28.07
30.77
30.69
28.12
23.62
18.02
12.29
7.36
3.83
1.92
1.45
1.98
2.99
3.97
4.56
4.53
3.83
2.53
0.79
-1.32
-3.88
-7.12
-11.29
-16.37
-21.93
-27.00
-30.36
-30.85
-27.82
-21.36
-12.23
-1.67
9.02
18.67
26.44
31.74
34.23
33.84
30.85
25.90
19.89
13.80
8.40
4.14
1.11
-0.87
-2.05
-2.77
-3.33
-4.09
-5.29
-7.11
-9.48
-12.15
-14.76
-17.04
-18.92
-20.61
-22.51
-25.01
-28.25
-31.90
-35.08
-36.57
-35.17
-30.15
-21.62
-10.55
1.54
13.04
22.75
30.06
34.81
37.11
37.11
35.01
31.21
26.34
21.27
16.88
13.74
12.00
11.40
11.47
11.69
11.67
11.17
10.06
8.33
6.04
3.40
0.61
-2.18
-4.91
-7.68
-10.69
-14.11
-18.06
-22.60
-27.77
-33.52
-39.60
-45.35
-49.68
-51.22
-48.74
-41.68
-30.41
-16.20
-0.87
13.73
26.18
35.61
41.71
44.57
44.56
42.32
38.71
34.69
31.18
28.77
27.64
27.52
27.85
28.00
27.47
26.04
23.77
20.95
17.97
15.08
12.35
9.57
6.40
2.54
-2.14
-7.46
-13.03
-18.35
-23.00
-26.76
-29.71
-32.16
-34.57
-37.40
-40.94
-45.15
-49.48
-52.87
-53.97
-51.49
-44.72
-33.80
-19.86
-4.62
10.02
22.53
32.02
38.17
41.17
41.46
39.79
37.04
34.25
32.35
31.91
32.99
35.20
37.91
40.52
42.63
44.04
44.64
44.30
42.90
40.40
36.92
32.72
28.08
23.17
17.99
12.47
6.59
0.51
-5.43
-10.81
-15.31
-18.85
-21.63
-24.02
-26.40
-29.07
-32.22
-35.90
-40.01
-44.23
-47.92
-50.12
-49.72
-45.85
-38.22
-27.41
-14.77
-2.05
9.16
17.86
23.72
26.99
28.11
27.45
25.28
21.89
17.80
13.79
10.72
9.30
9.76
11.80
14.72
17.73
20.18
21.72
22.31
22.05
21.12
19.68
17.89
15.92
13.92
11.98
10.11
8.20
6.11
3.71
1.00
-1.98
-5.15
-8.53
-12.33
-16.88
-22.43
-28.89
-35.62
-41.40
-44.77
-44.45
-39.90
-31.47
-20.36
-8.25
3.18
12.62
19.25
22.74
23.17
20.95
16.84
11.88
7.23
3.95
2.72
3.66
6.40
10.20
14.23
17.77
20.37
21.83
22.19
21.59
20.20
18.17
15.58
12.44
8.75
4.56
-0.01
-4.75
-9.47
-13.99
-18.27
-22.38
-26.47
-30.71
-35.17
-39.60
-43.35
-45.39
-44.49
-39.66
-30.63
-18.08
-3.59
10.89
23.50
32.97
38.69
40.63
39.00
34.14
26.60
17.20
7.17
-2.10
-9.28
-13.55
-14.72
-13.29
-10.15
-6.27
-2.34
1.28
4.49
7.23
9.28
10.28
9.81
7.70
4.27
0.24
-3.50
-6.28
-7.96
-8.97
-10.04
-11.89
-14.94
-19.14
-23.98
-28.63
-32.01
-33.00
-30.71
-24.78
-15.57
-4.18
7.80
18.79
27.60
33.56
36.55
36.65
34.13
29.40
23.20
16.56
10.65
6.40
4.19
3.73
4.32
5.16
5.71
5.74
5.30
4.48
3.32
1.73
-0.32
-2.82
-5.65
-8.66
-11.69
-14.61
-17.30
-19.64
-21.58
-23.18
-24.66
-26.34
-28.47
-31.07
-33.75
-35.71
-35.93
-33.51
-27.95
-19.45
-8.84
2.58
13.42
22.52
29.10
32.84
33.80
32.31
28.89
24.21
19.08
14.28
10.46
7.98
6.83
6.69
7.13
7.68
8.07
8.13
7.86
7.31
6.53
5.62
4.63
3.61
2.54
1.34
-0.06
-1.68
-3.44
-5.16
-6.76
-8.38
-10.34
-12.96
-16.21
-19.48
-21.55
-21.06
-17.11
-9.72
-0.01
10.27
19.35
26.03
29.89
31.16
30.27
27.63
23.52
18.27
12.41
6.67
1.80
-1.71
-3.73
-4.50
-4.46
-4.03
-3.48
-2.97
-2.61
-2.54
-2.92
-3.90
-5.58
-7.87
-10.55
-13.38
-16.12
-18.68
-21.16
-23.76
-26.75
-30.28
-34.30
-38.43
-41.98
-44.01
-43.58
-39.98
-33.02
-23.10
-11.23
1.33
13.27
23.55
31.48
36.59
38.65
37.60
33.72
27.76
20.87
14.33
9.23
6.11
4.89
5.00
5.80
6.78
7.74
8.67
9.52
10.12
10.10
9.10
6.95
3.79
0.04
-3.75
-7.16
-10.08
-12.74
-15.62
-19.26
-23.99
-29.80
-36.16
-42.07
-46.21
-47.30
-44.47
-37.57
-27.28
-14.90
-2.07
9.71
19.28
25.93
29.31
29.43
26.56
21.39
14.94
8.45
3.08
-0.38
-1.71
-1.24
0.39
2.54
4.72
6.62
8.06
8.87
8.85
7.82
5.79
2.95
-0.30
-3.45
-5.98
-7.49
-7.80
-6.99
-5.42
-3.75
-2.73
-3.06
-5.19
-9.08
-14.18
-19.43
-23.53
-25.18
-23.43
-18.01
-9.38
1.35
12.71
23.26
31.87
37.81
40.80
40.76
37.88
32.58
25.57
17.82
10.47
4.49
0.48
-1.52
-1.98
-1.62
-1.13
-0.91
-1.00
-1.24
-1.45
-1.66
-2.14
-3.26
-5.27
-8.14
-11.52
-14.90
-17.85
-20.22
-22.20
-24.24
-26.83
-30.25
-34.43
-38.88
-42.75
-44.97
-44.48
-40.54
-33.00
-22.37
-9.81
3.13
14.88
24.15
30.19
32.76
32.11
28.83
23.77
17.93
12.37
7.94
5.13
3.92
3.85
4.24
4.51
4.42
4.13
4.07
4.62
5.78
7.13
7.93
7.43
5.26
1.57
-3.00
-7.60
-11.49
-14.28
-16.05
-17.22
-18.45
-20.42
-23.67
-28.31
-33.81
-38.94
-41.98
-41.19
-35.55
-25.16
-11.39
3.52
17.18
27.70
34.06
36.16
34.57
30.20
24.10
17.37
11.05
6.06
2.92
1.71
2.05
3.28
4.80
6.23
7.50
8.71
9.91
11.03
11.81
11.99
11.42
10.16
8.48
6.78
5.43
4.66
4.52
4.74
4.79
3.87
1.18
-3.78
-10.87
-19.10
-26.70
-31.58
-32.04
-27.31
-17.91
-5.39
8.23
21.08
31.86
40.00
45.37
48.05
48.11
45.69
41.10
35.09
28.74
23.23
19.48
17.81
17.83
18.67
19.34
19.11
17.69
15.29
12.31
9.14
5.99
2.87
-0.29
-3.56
-6.95
-10.42
-13.93
-17.48
-21.07
-24.67
-28.19
-31.39
-33.86
-34.95
-33.93
-30.12
-23.27
-13.77
-2.68
8.53
18.42
26.00
30.94
33.46
33.94
32.66
29.70
25.12
19.23
12.63
6.12
0.34
-4.32
-7.74
-9.78
-10.21
-8.73
-5.33
-0.45
4.91
9.50
12.26
12.69
10.96
7.69
3.63
-0.70
-5.07
-9.49
-14.04
-18.73
-23.57
-28.61
-33.97
-39.75
-45.82
-51.66
-56.24
-58.19
-56.17
-49.35
-37.82
-22.69
-5.88
10.42
24.26
34.38
40.26
42.05
40.30
35.78
29.39
22.17
15.28
9.80
6.51
5.58
6.53
8.43
10.26
11.31
11.30
10.38
8.82
6.82
4.42
1.54
-1.84
-5.63
-9.54
-13.22
-16.35
-18.75
-20.43
-21.66
-22.93
-24.85
-28.01
-32.72
-38.84
-45.75
-52.30
-57.07
-58.68
-56.14
-49.22
-38.55
-25.54
-12.02
0.25
10.05
16.88
20.87
22.49
22.26
20.59
17.81
14.41
11.03
8.49
7.47
8.32
10.97
14.91
19.44
23.88
27.74
30.70
32.63
33.49
33.26
31.96
29.62
26.27
21.94
16.70
10.72
4.29
-2.23
-8.38
-13.85
-18.46
-22.27
-25.59
-28.85
-32.63
-37.30
-42.90
-48.86
-53.97
-56.60
-55.24
-49.00
-38.07
-23.67
-7.71
7.86
21.52
32.42
40.22
44.86
46.40
45.03
41.20
35.78
29.95
24.98
21.78
20.71
21.46
23.20
24.98
25.98
25.81
24.48
22.26
19.50
16.41
13.01
9.24
5.03
0.43
-4.43
-9.42
-14.43
-19.45
-24.38
-29.01
-33.06
-36.31
-38.73
-40.51
-41.88
-42.78
-42.68
-40.71
-35.98
-28.08
-17.34
-4.72
8.49
21.08
32.16
41.10
47.34
50.41
50.03
46.35
40.10
32.48
24.84
18.22
13.14
9.55
7.04
5.12
3.47
2.01
0.90
0.36
0.55
1.39
2.56
3.59
3.97
3.34
1.59
-1.14
-4.56
-8.32
-12.17
-15.99
-19.80
-23.79
-28.22
-33.22
-38.60
-43.67
-47.20
-47.75
-44.13
-35.89
-23.56
-8.57
7.20
21.93
34.19
43.19
48.59
50.45
49.10
45.18
39.60
33.42
27.70
23.21
20.27
18.77
18.29
18.31
18.32
18.02
17.22
15.80
13.59
10.32
5.74
-0.28
-7.54
-15.46
-23.17
-29.76
-34.62
-37.67
-39.36
-40.59
-42.35
-45.36
-49.79
-55.07
-59.85
-62.35
-60.77
-53.96
-41.85
-25.54
-7.08
11.17
27.23
39.97
49.17
55.23
58.71
60.05
59.49
57.27
53.84
49.86
46.07
42.95
40.64
38.88
37.25
35.41
33.28
30.91
28.39
25.59
22.13
17.54
11.46
3.84
-4.85
-13.78
-21.93
-28.45
-32.98
-35.79
-37.66
-39.66
-42.70
-47.29
-53.36
-60.21
-66.63
-71.02
-71.78
-67.71
-58.46
-44.72
-28.14
-10.89
4.94
17.79
26.78
31.71
32.78
30.51
25.63
19.13
12.22
6.10
1.74
-0.38
-0.33
1.38
3.99
6.79
9.27
11.24
12.77
14.01
15.09
15.91
16.19
15.52
13.59
10.40
6.40
2.34
-0.95
-2.99
-3.96
-4.75
-6.70
-10.91
-17.69
-26.16
-34.40
-40.02
-41.06
-36.63
-27.17
-14.26
0.02
13.70
25.31
34.00
39.34
41.21
39.69
35.20
28.56
20.99
13.94
8.70
6.05
6.09
8.23
11.44
14.73
17.37
19.17
20.24
20.80
20.87
20.23
18.46
15.25
10.62
5.03
-0.79
-6.07
-10.29
-13.37
-15.61
-17.50
-19.55
-22.12
-25.34
-29.11
-33.08
-36.57
-38.64
-38.16
-34.15
-26.16
-14.59
-0.70
13.76
27.06
37.94
45.78
50.52
52.27
51.22
47.58
41.86
34.99
28.20
22.77
19.48
18.48
19.18
20.65
21.94
22.51
22.23
21.28
19.94
18.31
16.30
13.62
10.02
5.40
-0.08
-5.98
-11.80
-16.99
-21.23
-24.41
-26.68
-28.38
-30.03
-32.15
-35.23
-39.47
-44.63
-49.86
-53.75
-54.67
-51.33
-43.23
-30.97
-16.11
-0.67
13.39
24.57
31.98
35.21
34.25
29.48
21.74
12.37
3.06
-4.45
-8.84
-9.51
-6.69
-1.34
5.18
11.47
16.42
19.41
20.34
19.46
17.16
13.80
9.61
4.78
-0.38
-5.46
-10.05
-13.91
-17.17
-20.23
-23.58
-27.58
-32.28
-37.51
-42.84
-47.73
-51.41
-52.95
-51.40
-46.05
-36.77
-24.20
-9.54
5.81
20.71
34.35
46.16
55.47
61.47
63.33
60.79
54.50
46.06
37.54
30.78
26.62
24.77
24.17
23.57
22.19
19.86
16.89
13.57
9.92
5.63
0.29
-6.22
-13.56
-21.01
-27.81
-33.45
-37.81
-41.11
-43.77
-46.22
-48.93
-52.33
-56.74
-62.00
-67.26
-70.96
-71.15
-66.23
-55.69
-40.36
-22.29
-4.03
12.14
24.78
33.31
37.77
38.51
36.05
31.13
24.89
18.82
14.42
12.77
14.10
17.76
22.45
26.74
29.64
30.81
30.55
29.56
28.55
27.98
27.91
28.06
27.91
26.90
24.59
20.77
15.43
8.77
1.13
-7.08
-15.44
-23.71
-31.80
-39.76
-47.43
-54.26
-59.18
-60.86
-58.27
-51.16
-40.23
-26.91
-12.73
1.13
13.93
25.06
33.69
38.72
39.18
34.86
26.73
16.83
7.60
1.04
-1.98
-1.77
0.52
3.58
6.50
8.96
11.11
13.21
15.27
16.93
17.57
16.61
13.84
9.57
4.59
-0.16
-3.95
-6.49
-7.92
-8.68
-9.29
-10.12
-11.40
-13.30
-15.87
-18.98
-22.06
-24.01
-23.32
-18.62
-9.29
4.10
19.72
35.14
48.02
56.87
61.28
61.74
59.12
54.37
48.27
41.58
35.07
29.57
25.73
23.75
23.31
23.62
23.79
23.09
21.24
18.40
15.00
11.53
8.23
5.06
1.68
-2.24
-6.88
-12.06
-17.31
-22.10
-26.05
-29.10
-31.52
-33.71
-36.07
-38.92
-42.42
-46.47
-50.60
-53.83
-54.72
-51.84
-44.33
-32.44
-17.66
-2.26
11.47
21.85
28.18
30.56
29.51
25.72
20.03
13.49
7.43
3.18
1.63
2.88
6.18
10.19
13.60
15.52
15.77
14.68
12.84
10.73
8.52
6.13
3.33
-0.00
-3.82
-7.86
-11.74
-15.11
-17.79
-19.91
-21.85
-24.23
-27.49
-31.65
-35.92
-38.78
-38.29
-32.72
-21.16
-4.14
16.44
37.67
56.33
69.71
76.14
75.20
67.64
55.03
39.38
22.83
7.33
-5.63
-15.11
-20.94
-23.49
-23.58
-22.18
-20.18
-18.33
-17.13
-16.97
-17.97
-20.05
-22.74
-25.47
-27.65
-28.97
-29.61
-30.06
-30.98
-32.91
-36.15
-40.69
-46.33
-52.55
-58.46
-62.78
-63.94
-60.60
-52.07
-38.72
-21.94
-3.73
13.85
29.19
41.32
49.78
54.42
55.34
52.84
47.72
41.21
34.84
30.06
27.84
28.39
31.23
35.39
39.73
43.22
45.07
44.80
42.28
37.61
31.14
23.36
14.86
6.23
-2.10
-9.87
-17.05
-23.83
-30.55
-37.61
-45.28
-53.47
-61.59
-68.44
-72.45
-72.08
-66.37
-55.32
-40.00
-22.28
-4.29
12.09
25.54
35.32
41.19
43.21
41.77
37.55
31.58
25.05
19.11
14.65
12.02
11.19
11.73
13.10
14.76
16.27
17.28
17.52
16.80
15.03
12.22
8.54
4.23
-0.35
-4.89
-9.10
-12.80
-15.93
-18.65
-21.24
-24.13
-27.73
-32.27
-37.58
-42.92
-47.04
-48.37
-45.54
-37.81
-25.52
-10.04
6.58
22.15
34.95
43.98
48.99
50.20
48.10
43.34
36.79
29.53
22.77
17.52
14.35
13.18
13.37
14.12
14.74
14.94
14.79
14.48
14.01
13.17
11.53
8.76
4.82
-0.01
-5.20
-10.22
-14.71
-18.61
-22.05
-25.35
-28.95
-33.36
-39.00
-45.99
-53.80
-61.09
-65.93
-66.27
-60.75
-49.25
-33.12
-14.80
2.95
17.74
28.16
33.77
34.98
32.61
27.74
21.50
15.03
9.37
5.36
3.46
3.66
5.51
8.25
11.04
13.14
14.07
13.66
12.06
9.55
6.51
3.28
0.17
-2.45
-4.16
-4.58
-3.57
-1.50
0.66
1.52
-0.40
-6.14
-15.84
-28.56
-42.33
-54.52
-62.48
-64.20
-58.88
-47.08
-30.62
-12.03
6.10
21.71
33.51
40.99
44.20
43.56
39.85
34.07
27.49
21.38
16.81
14.32
13.85
14.82
16.37
17.75
18.51
18.58
18.09
17.20
15.89
13.91
10.94
6.82
1.75
-3.69
-8.73
-12.71
-15.36
-16.98
-18.30
-20.19
-23.37
-27.99
-33.56
-38.83
-42.14
-41.77
-36.51
-26.02
-11.00
7.03
26.08
44.15
59.43
70.49
76.29
76.34
70.92
61.18
49.08
36.99
27.00
20.30
16.96
16.05
16.19
16.23
15.54
14.07
12.07
9.72
6.97
3.63
-0.47
-5.20
-10.20
-15.00
-19.26
-22.93
-26.19
-29.29
-32.43
-35.69
-39.17
-42.97
-47.11
-51.32
-54.86
-56.53
-54.99
-49.26
-39.23
-25.76
-10.45
4.83
18.48
29.44
37.16
41.47
42.43
40.32
35.74
29.63
23.20
17.70
14.05
12.66
13.33
15.38
17.93
20.13
21.37
21.34
19.92
17.14
13.05
7.80
1.67
-4.87
-11.18
-16.63
-20.79
-23.53
-25.09
-26.03
-27.09
-28.98
-32.15
-36.47
-41.08
-44.45
-44.80
-40.76
-31.91
-18.98
-3.70
11.86
25.82
36.84
44.18
47.54
46.98
42.88
36.07
27.82
19.63
12.87
8.35
6.25
6.03
6.83
7.73
8.12
7.76
6.70
5.06
2.86
-0.09
-4.03
-9.12
-15.20
-21.81
-28.32
-34.11
-38.83
-42.51
-45.56
-48.61
-52.20
-56.50
-61.02
-64.61
-65.63
-62.56
-54.54
-41.80
-25.67
-8.16
8.61
22.91
33.62
40.14
42.27
40.15
34.36
25.99
16.63
8.02
1.62
-1.78
-2.19
-0.29
2.97
6.73
10.34
13.41
15.58
16.54
15.98
13.71
9.87
4.91
-0.50
-5.70
-10.28
-14.16
-17.55
-20.81
-24.30
-28.27
-32.87
-38.07
-43.55
-48.61
-52.11
-52.55
-48.45
-38.93
-24.04
-4.92
16.52
38.16
58.13
75.12
88.21
96.68
99.94
97.68
90.25
78.98
65.97
53.62
43.75
37.05
32.97
30.18
27.36
23.88
19.98
16.34
13.61
11.81
10.26
7.96
4.16
-1.26
-7.68
-14.15
-19.88
-24.56
-28.49
-32.31
-36.62
-41.76
-47.76
-54.32
-60.98
-66.98
-71.22
-72.39
-69.19
-60.87
-47.62
-30.60
-11.73
6.93
23.63
37.20
46.94
52.45
53.53
50.38
43.77
35.16
26.43
19.37
15.16
14.03
15.38
18.16
21.38
24.41
27.05
29.33
31.23
32.50
32.64
31.09
27.49
21.86
14.68
6.71
-1.25
-8.67
-15.43
-21.83
-28.37
-35.54
-43.48
-51.88
-59.89
-66.18
-69.27
-67.80
-61.00
-48.89
-32.49
-13.61
5.51
22.64
36.08
44.82
48.66
48.03
43.76
36.96
28.81
20.48
13.00
7.18
3.50
2.05
2.55
4.45
7.05
9.60
11.52
12.38
12.00
10.41
7.84
4.58
0.96
-2.77
-6.43
-9.91
-13.21
-16.43
-19.87
-23.94
-29.04
-35.25
-42.00
-47.94
-51.09
-49.51
-41.92
-28.42
-10.56
9.09
27.71
43.00
53.63
59.21
60.03
56.71
50.09
41.18
31.28
21.85
14.22
9.31
7.32
7.76
9.62
11.74
13.15
13.21
11.71
8.78
4.78
0.12
-4.83
-9.85
-14.85
-19.92
-25.13
-30.53
-36.12
-41.94
-48.12
-54.91
-62.41
-70.25
-77.35
-81.91
-81.88
-75.71
-63.00
-44.77
-23.25
-1.17
18.89
35.05
46.31
52.44
53.77
51.01
45.21
37.60
29.53
22.22
16.61
13.18
11.95
12.51
14.19
16.26
18.06
19.17
19.38
18.58
16.65
13.51
9.14
3.70
-2.32
-8.25
-13.43
-17.56
-20.80
-23.82
-27.48
-32.47
-38.86
-45.84
-51.83
-54.82
-53.01
-45.43
-32.35
-15.27
3.51
21.56
36.88
48.28
55.45
58.83
59.38
58.27
56.63
55.25
54.36
53.69
52.67
50.78
47.83
44.03
39.77
35.33
30.62
25.31
19.05
11.79
3.91
-3.98
-11.29
-17.72
-23.31
-28.37
-33.28
-38.32
-43.77
-49.91
-56.96
-64.90
-73.12
-80.27
-84.43
-83.60
-76.47
-62.98
-44.53
-23.50
-2.62
15.75
30.04
39.48
43.97
43.87
39.93
33.25
25.24
17.50
11.56
8.49
8.71
11.93
17.35
24.00
31.05
37.90
44.05
48.93
51.74
51.59
47.83
40.45
30.19
18.35
6.28
-5.18
-15.88
-26.29
-37.09
-48.64
-60.74
-72.42
-82.12
-87.94
-88.09
-81.40
-67.81
-48.51
-25.86
-2.80
17.88
34.09
44.80
49.98
50.33
46.93
41.02
33.89
26.78
20.79
16.73
14.95
15.30
17.21
19.88
22.53
24.60
25.77
25.95
25.12
23.27
20.44
16.76
12.47
7.93
3.42
-0.91
-5.15
-9.56
-14.47
-20.11
-26.53
-33.41
-39.94
-44.84
-46.52
-43.49
-34.90
-21.03
-3.38
15.62
33.26
47.25
56.23
59.82
58.51
53.27
45.32
35.94
26.41
17.86
11.21
6.98
5.18
5.43
6.98
9.01
10.81
11.93
12.17
11.49
9.95
7.62
4.59
1.02
-2.92
-7.01
-11.16
-15.40
-19.87
-24.74
-30.15
-36.04
-42.11
-47.71
-51.83
-53.23
-50.70
-43.50
-31.74
-16.54
0.19
16.17
29.38
38.45
42.69
42.15
37.40
29.35
19.27
8.65
-1.03
-8.55
-13.14
-14.69
-13.62
-10.77
-7.18
-3.89
-1.71
-1.14
-2.28
-4.82
-8.21
-11.86
-15.29
-18.28
-20.87
-23.28
-25.79
-28.71
-32.25
-36.55
-41.41
-46.23
-49.91
-51.01
-48.25
-40.93
-29.34
-14.80
0.69
15.04
26.58
34.37
38.15
38.18
35.00
29.36
22.22
14.73
8.12
3.42
1.24
1.61
4.07
7.81
11.94
15.66
18.44
19.98
20.21
19.24
17.30
14.65
11.57
8.29
5.08
2.20
-0.09
-1.73
-2.95
-4.25
-6.15
-8.72
-11.28
-12.45
-10.65
-4.83
4.90
17.13
29.52
39.61
45.64
46.95
43.97
37.73
29.44
20.12
10.60
1.62
-6.07
-11.69
-14.70
-14.98
-13.01
-9.73
-6.31
-3.72
-2.51
-2.71
-3.98
-5.94
-8.28
-10.91
-13.91
-17.32
-21.03
-24.80
-28.31
-31.29
-33.57
-35.09
-35.67
-34.86
-31.89
-25.91
-16.38
-3.47
11.77
27.52
41.72
52.58
59.01
60.74
58.13
51.98
43.25
32.95
22.13
11.91
3.31
-2.90
-6.35
-7.28
-6.33
-4.47
-2.57
-1.26
-0.81
-1.26
-2.57
-4.72
-7.70
-11.41
-15.57
-19.71
-23.36
-26.25
-28.44
-30.34
-32.56
-35.68
-39.89
-44.74
-49.08
-51.23
-49.44
-42.48
-30.15
-13.50
5.42
24.11
40.31
52.42
59.73
62.20
60.35
55.02
47.30
38.48
29.90
22.76
17.88
15.57
15.62
17.38
20.03
22.73
24.83
25.88
25.66
24.05
21.03
16.65
11.14
4.90
-1.53
-7.60
-12.98
-17.71
-22.16
-26.87
-32.22
-38.05
-43.55
-47.32
-47.80
-43.70
-34.57
-21.03
-4.67
12.26
27.44
38.98
45.75
47.43
44.40
37.51
27.89
16.86
5.74
-4.23
-12.06
-17.18
-19.49
-19.46
-17.87
-15.69
-13.77
-12.69
-12.67
-13.71
-15.67
-18.48
-22.10
-26.51
-31.56
-36.96
-42.41
-47.84
-53.47
-59.71
-66.74
-74.04
-80.16
-82.98
-80.38
-71.14
-55.57
-35.56
-13.97
6.23
22.77
34.45
41.05
42.95
40.83
35.56
28.25
20.22
12.92
7.54
4.75
4.54
6.35
9.32
12.59
15.48
17.46
18.14
17.25
14.73
10.80
5.97
0.84
-4.10
-8.69
-13.10
-17.74
-23.04
-29.26
-36.41
-44.11
-51.59
-57.58
-60.53
-58.81
-51.28
-37.69
-18.97
3.00
25.87
47.42
65.97
80.46
90.23
94.92
94.44
89.16
80.17
69.23
58.30
49.05
42.29
37.87
34.91
32.32
29.28
25.38
20.65
15.21
9.14
2.43
-4.87
-12.58
-20.33
-27.64
-34.15
-39.65
-44.21
-48.12
-51.83
-55.82
-60.37
-65.33
-69.84
-72.39
-71.07
-64.32
-51.52
-33.45
-12.15
9.59
29.04
44.18
53.98
58.30
57.62
52.81
45.02
35.66
26.37
18.74
14.05
12.92
15.24
20.21
26.66
33.33
39.11
43.19
45.10
44.62
41.79
36.80
30.00
21.79
12.62
2.96
-6.77
-16.23
-25.23
-33.82
-42.21
-50.69
-59.34
-67.81
-75.19
-80.14
-81.15
-77.05
-67.43
-52.87
-34.91
-15.66
2.65
18.12
29.42
35.88
37.39
34.35
27.68
18.70
9.08
0.51
-5.67
-8.73
-8.69
-6.21
-2.19
2.43
6.94
10.81
13.71
15.40
15.78
14.83
12.73
9.72
6.11
2.15
-1.91
-5.93
-9.88
-13.89
-18.29
-23.46
-29.50
-35.95
-41.55
-44.49
-42.95
-35.75
-22.94
-5.94
12.93
31.15
46.59
57.98
64.86
67.34
65.83
60.95
53.55
44.76
35.95
28.43
23.22
20.71
20.67
22.26
24.41
26.01
26.22
24.62
21.28
16.65
11.37
6.03
0.88
-4.15
-9.36
-15.12
-21.68
-29.16
-37.56
-46.72
-56.11
-64.64
-70.64
-72.17
-67.69
-56.75
-40.38
-20.93
-1.30
15.83
28.70
36.62
39.70
38.55
33.94
26.75
18.05
9.07
1.07
-4.90
-8.21
-8.82
-7.22
-4.27
-1.03
1.56
2.76
2.28
0.21
-3.02
-6.90
-10.99
-14.98
-18.76
-22.29
-25.60
-28.79
-32.14
-35.99
-40.59
-45.70
-50.34
-52.78
-50.99
-43.42
-29.67
-10.89
10.52
31.58
49.63
62.92
70.78
73.46
71.63
66.20
58.12
48.49
38.56
29.62
22.74
18.54
17.05
17.75
19.72
21.97
23.60
24.00
22.93
20.50
17.10
13.33
9.90
7.51
6.75
7.92
10.84
14.68
18.00
19.06
16.49
9.92
0.38
-9.89
-18.03
-21.58
-19.27
-11.37
0.52
14.04
26.76
36.66
42.33
43.07
38.87
30.41
19.03
6.49
-5.37
-15.00
-21.51
-24.73
-25.11
-23.46
-20.65
-17.47
-14.45
-11.91
-10.03
-8.91
-8.62
-9.25
-10.83
-13.23
-16.09
-18.83
-20.78
-21.37
-20.27
-17.60
-13.91
-10.21
-7.61
-6.98
-8.48
-11.25
-13.61
-13.61
-9.91
-2.42
7.52
17.70
25.84
30.48
31.25
28.64
23.58
16.95
9.46
1.79
-5.33
-11.07
-14.77
-16.12
-15.38
-13.23
-10.58
-8.29
-6.97
-6.92
-8.13
-10.34
-13.17
-16.24
-19.25
-22.13
-25.03
-28.25
-32.10
-36.78
-42.38
-48.70
-55.24
-61.07
-64.81
-64.82
-59.66
-48.68
-32.40
-12.66
7.94
26.62
41.23
50.56
54.39
53.20
47.81
39.28
28.80
17.74
7.57
-0.38
-5.09
-6.15
-3.83
1.00
7.04
12.86
17.26
19.53
19.58
17.90
15.22
12.28
9.50
6.96
4.44
1.63
-1.81
-6.18
-11.72
-18.52
-26.24
-33.85
-39.60
-41.40
-37.54
-27.42
-11.99
6.50
25.21
41.59
54.00
61.79
65.01
64.02
59.28
51.40
41.35
30.43
20.08
11.53
5.48
1.93
0.33
-0.23
-0.74
-2.05
-4.68
-8.78
-14.07
-19.95
-25.71
-30.78
-34.90
-38.11
-40.71
-43.05
-45.41
-48.08
-51.28
-55.13
-59.40
-63.33
-65.55
-64.38
-58.42
-47.18
-31.36
-12.76
6.20
23.21
36.51
45.10
48.67
47.50
42.27
34.12
24.58
15.40
8.23
4.24
3.84
6.56
11.20
16.15
19.82
21.05
19.41
15.22
9.45
3.25
-2.46
-7.29
-11.41
-15.37
-19.78
-25.11
-31.54
-38.99
-47.07
-54.95
-61.28
-64.30
-62.29
-54.11
-39.84
-20.93
0.20
20.81
38.60
52.24
61.30
65.97
66.66
63.74
57.64
48.97
38.76
28.36
19.20
12.33
8.17
6.32
5.76
5.24
3.70
0.62
-3.94
-9.46
-15.26
-20.86
-26.02
-30.79
-35.35
-39.88
-44.61
-49.73
-55.36
-61.27
-66.65
-70.02
-69.53
-63.61
-51.61
-34.27
-13.60
7.65
26.84
42.06
52.38
57.75
58.75
56.24
51.29
45.17
39.30
35.04
33.45
34.92
39.06
44.74
50.36
54.31
55.39
53.13
47.80
40.22
31.44
22.35
13.45
4.86
-3.65
-12.42
-21.77
-31.94
-43.06
-54.98
-67.11
-78.22
-86.39
-89.40
-85.40
-73.62
-54.95
-31.78
-7.37
15.06
33.15
45.73
52.63
54.31
51.49
45.04
36.04
25.88
16.14
8.28
3.29
1.40
2.13
4.49
7.34
9.67
10.81
10.42
8.53
5.40
1.48
-2.81
-7.11
-11.25
-15.27
-19.38
-23.91
-29.22
-35.62
-43.19
-51.61
-59.92
-66.54
-69.43
-66.68
-57.10
-40.84
-19.43
4.45
27.78
47.89
62.99
72.31
75.92
74.49
69.05
60.92
51.58
42.59
35.26
30.41
28.23
28.28
29.73
31.62
33.05
33.35
32.06
28.96
24.11
17.83
10.64
3.17
-4.04
-10.69
-16.77
-22.51
-28.29
-34.46
-41.30
-48.94
-57.20
-65.46
-72.52
-76.65
-76.01
-69.15
-55.68
-36.58
-14.08
8.94
29.66
45.94
56.60
61.42
60.82
55.75
47.51
37.71
28.15
20.52
16.16
15.69
18.97
25.09
32.67
40.10
45.93
49.06
48.97
45.69
39.77
32.08
23.57
15.06
7.14
0.02
-6.38
-12.37
-18.42
-25.07
-32.82
-41.98
-52.43
-63.37
-73.27
-80.05
-81.59
-76.46
-64.48
-46.92
-26.17
-5.07
13.86
28.80
38.83
43.74
43.82
39.79
32.82
24.49
16.59
10.74
7.96
8.40
11.36
15.66
20.04
23.61
25.94
26.97
26.86
25.85
24.21
22.29
20.46
19.00
17.91
16.78
14.85
11.32
5.59
-2.49
-12.68
-24.54
-37.53
-51.00
-63.81
-74.23
-80.09
-79.33
-70.83
-55.09
-34.27
-11.59
9.61
26.84
38.90
45.72
47.91
46.30
41.70
35.03
27.46
20.37
15.11
12.52
12.64
14.71
17.51
19.85
21.05
20.94
19.79
17.90
15.41
12.27
8.38
3.81
-1.07
-5.65
-9.27
-11.45
-12.11
-11.60
-10.73
-10.60
-12.40
-17.06
-24.82
-34.84
-45.19
-53.08
-55.72
-51.25
-39.49
-22.09
-2.01
17.41
33.45
44.57
50.38
51.27
47.95
41.24
32.09
21.79
11.87
3.85
-1.29
-3.35
-3.01
-1.45
0.21
1.33
1.90
2.29
2.87
3.69
4.31
4.07
2.34
-1.03
-5.69
-10.87
-15.74
-19.76
-22.89
-25.63
-28.79
-33.25
-39.51
-47.41
-55.90
-63.14
-66.86
-65.04
-56.54
-41.60
-21.84
0.13
21.46
39.67
53.15
61.17
63.76
61.45
55.17
46.13
35.80
25.78
17.49
11.91
9.41
9.71
12.04
15.40
18.84
21.62
23.20
23.28
21.74
18.62
14.16
8.81
3.18
-2.11
-6.61
-10.15
-12.96
-15.57
-18.69
-22.96
-28.66
-35.34
-41.76
-45.97
-45.86
-39.87
-27.63
-10.27
9.88
29.93
47.30
60.21
67.92
70.51
68.52
62.69
53.96
43.55
32.90
23.59
16.93
13.54
13.22
15.00
17.49
19.32
19.54
17.72
13.91
8.52
2.07
-4.81
-11.56
-17.69
-22.90
-27.18
-30.80
-34.26
-38.10
-42.74
-48.14
-53.71
-58.21
-59.93
-57.15
-48.71
-34.48
-15.69
5.35
25.80
43.06
55.36
61.98
63.13
59.52
52.16
42.21
30.95
19.82
10.30
3.55
0.20
0.09
2.35
5.71
8.85
10.70
10.70
8.74
5.11
0.27
-5.27
-11.16
-17.23
-23.46
-29.98
-36.94
-44.57
-53.06
-62.47
-72.38
-81.70
-88.57
-90.76
-86.41
-74.88
-57.12
-35.63
-13.61
5.99
21.13
30.98
35.55
35.32
30.90
23.01
12.73
1.50
-8.96
-17.08
-21.81
-22.98
-21.26
-17.89
-14.28
-11.54
-10.31
-10.62
-12.11
-14.28
-16.75
-19.44
-22.45
-25.97
-30.12
-34.85
-40.07
-45.75
-51.78
-57.83
-63.05
-65.85
-64.23
-56.33
-41.29
-19.80
5.88
32.59
57.19
77.41
92.24
101.56
105.70
104.97
99.60
90.09
77.51
63.58
50.31
39.37
31.62
26.84
24.02
21.88
19.40
16.07
11.93
7.26
2.38
-2.57
-7.59
-12.78
-18.23
-24.02
-30.25
-37.09
-44.80
-53.53
-63.04
-72.40
-79.86
-83.18
-80.27
-69.99
-52.74
-30.55
-6.50
16.15
34.82
48.07
55.56
57.72
55.32
49.30
40.77
31.06
21.68
14.10
9.43
8.17
10.10
14.43
20.00
25.53
29.87
32.09
31.68
28.51
22.88
15.38
6.73
-2.38
-11.50
-20.43
-29.24
-38.14
-47.38
-57.09
-67.08
-76.64
-84.45
-88.71
-87.52
-79.52
-64.50
-43.68
-19.59
4.59
25.78
41.72
51.30
54.46
51.95
44.95
34.93
23.49
12.29
2.80
-3.89
-7.34
-7.76
-5.92
-2.81
0.59
3.50
5.38
5.92
5.09
3.15
0.71
-1.44
-2.58
-2.39
-1.12
0.37
0.83
-1.00
-5.97
-14.13
-24.50
-35.12
-43.39
-46.71
-43.27
-32.72
-16.33
3.26
22.88
39.55
51.20
56.83
56.40
50.67
40.90
28.77
16.14
4.87
-3.59
-8.47
-9.79
-8.26
-5.03
-1.32
1.85
3.76
4.04
2.61
-0.37
-4.59
-9.62
-15.02
-20.51
-25.96
-31.44
-37.16
-43.34
-50.19
-57.82
-66.17
-74.80
-82.64
-87.97
-88.60
-82.57
-68.83
-47.89
-21.92
5.84
31.90
53.42
68.68
77.15
79.21
75.86
68.48
58.72
48.42
39.30
32.68
29.21
28.80
30.74
34.00
37.57
40.63
42.62
43.14
41.96
38.95
34.11
27.68
20.09
11.91
3.75
-3.94
-10.96
-17.40
-23.58
-30.02
-37.23
-45.49
-54.52
-63.18
-69.46
-70.86
-65.17
-51.40
-30.30
-4.33
23.03
48.29
68.79
83.12
90.96
92.70
89.12
81.25
70.43
58.32
46.77
37.41
31.28
28.56
28.59
30.24
32.37
34.18
35.40
36.04
36.09
35.31
33.22
29.37
23.65
16.47
8.59
0.86
-6.20
-12.56
-18.55
-24.69
-31.42
-39.02
-47.51
-56.57
-65.35
-72.40
-75.77
-73.52
-64.40
-48.41
-27.05
-3.01
20.57
40.82
55.70
64.22
66.36
62.83
54.91
44.23
32.67
22.04
13.81
8.82
7.15
8.17
10.83
13.98
16.69
18.36
18.74
17.81
15.59
12.16
7.61
2.12
-4.00
-10.33
-16.48
-22.17
-27.33
-32.13
-36.95
-42.25
-48.40
-55.47
-62.94
-69.65
-73.86
-73.62
-67.35
-54.49
-35.78
-13.25
10.31
31.97
49.35
60.98
66.37
65.85
60.35
51.29
40.41
29.60
20.56
14.48
11.76
11.97
14.15
17.11
19.88
21.87
22.84
22.80
21.80
19.82
16.77
12.52
7.02
0.34
-7.23
-15.29
-23.38
-31.15
-38.55
-45.85
-53.58
-62.29
-72.14
-82.53
-91.88
-97.88
-98.11
-90.84
-75.76
-54.23
-28.97
-3.20
20.12
38.90
51.96
58.90
59.85
55.45
46.89
35.98
24.96
15.99
10.59
9.24
11.31
15.42
19.91
23.49
25.44
25.73
24.75
23.03
20.96
18.63
15.98
12.81
9.07
4.83
0.31
-4.32
-8.97
-13.72
-18.83
-24.55
-31.09
-38.33
-45.69
-52.00
-55.62
-54.79
-48.21
-35.57
-17.74
3.31
25.02
44.90
60.95
71.90
77.19
76.83
71.29
61.53
49.00
35.54
23.11
13.37
7.34
5.11
5.96
8.58
11.57
13.85
14.88
14.64
13.38
11.30
8.38
4.43
-0.72
-6.91
-13.54
-19.74
-24.73
-28.08
-29.97
-30.99
-31.98
-33.65
-36.51
-40.68
-45.83
-51.09
-55.02
-55.80
-51.76
-41.95
-26.62
-7.33
13.43
32.94
48.93
59.99
65.55
65.79
61.35
53.31
43.16
32.70
23.76
17.73
15.17
15.69
18.26
21.56
24.53
26.58
27.54
27.43
26.33
24.25
21.18
17.20
12.50
7.34
1.96
-3.48
-8.87
-14.15
-19.29
-24.38
-29.67
-35.60
-42.55
-50.42
-58.35
-64.61
-67.02
-63.68
-53.75
-37.84
-17.80
3.86
24.73
42.88
56.96
66.00
69.31
66.66
58.60
46.62
32.98
20.13
10.03
3.63
0.84
0.78
2.26
4.16
5.68
6.31
5.79
4.06
1.20
-2.53
-6.81
-11.34
-15.90
-20.41
-24.89
-29.51
-34.50
-40.23
-46.98
-54.77
-62.96
-70.08
-74.08
-72.86
-65.10
-50.90
-31.95
-11.03
8.79
25.03
36.20
41.85
42.19
37.88
29.81
19.21
7.65
-3.18
-11.73
-17.03
-18.82
-17.57
-14.21
-9.87
-5.65
-2.45
-0.89
-1.19
-3.13
-6.09
-9.26
-11.96
-13.84
-14.96
-15.59
-16.05
-16.60
-17.54
-19.26
-22.14
-26.18
-30.54
-33.52
-32.91
-26.97
-15.29
0.73
18.28
34.13
45.65
51.54
51.82
47.42
39.60
29.57
18.51
7.56
-2.05
-9.23
-13.23
-13.91
-11.77
-7.88
-3.54
0.03
1.97
1.93
0.01
-3.40
-7.80
-12.80
-18.11
-23.55
-28.98
-34.27
-39.36
-44.36
-49.62
-55.58
-62.57
-70.40
-78.08
-83.81
-85.30
-80.50
-68.40
-49.52
-25.93
-0.70
23.06
42.89
57.44
66.29
69.65
67.97
61.99
52.80
42.04
31.73
23.82
19.57
19.20
21.80
25.82
29.63
32.11
32.86
32.07
30.20
27.58
24.31
20.22
15.09
8.90
1.92
-5.25
-11.96
-17.68
-22.27
-25.98
-29.35
-33.00
-37.51
-43.23
-50.15
-57.71
-64.59
-68.79
-68.02
-60.44
-45.47
-24.29
0.36
24.98
46.36
62.44
72.46
76.70
75.83
70.58
61.77
50.54
38.57
27.88
20.27
16.78
17.25
20.50
24.82
28.70
31.25
32.34
32.30
31.56
30.24
28.15
24.95
20.51
15.11
9.39
4.10
-0.29
-3.82
-6.94
-10.33
-14.35
-18.94
-23.51
-27.32
-29.70
-30.43
-29.74
-28.26
-26.91
-26.75
-28.88
-34.12
-42.56
-53.13
-63.49
-70.45
-70.91
-62.97
-46.79
-24.62
-0.09
22.93
41.44
53.77
59.63
59.56
54.59
45.99
35.27
24.20
14.65
8.21
5.81
7.42
12.06
18.21
24.24
28.97
31.82
32.84
32.45
31.13
29.23
26.88
24.09
20.82
17.12
13.08
8.77
4.21
-0.65
-5.84
-11.29
-16.80
-22.05
-26.79
-30.86
-34.39
-37.71
-41.35
-45.87
-51.80
-59.35
-68.14
-76.98
-83.77
-85.93
-81.18
-68.37
-48.14
-22.88
3.94
28.83
49.20
63.75
72.25
75.06
72.74
66.03
56.06
44.57
33.75
25.73
21.91
22.51
26.52
32.13
37.42
40.97
42.18
41.24
38.81
35.61
32.17
28.62
24.80
20.35
15.01
8.76
1.89
-5.09
-11.58
-17.17
-21.68
-25.21
-28.09
-30.80
-33.90
-37.99
-43.41
-50.10
-57.14
-62.77
-64.60
-60.36
-48.74
-30.06
-6.39
18.99
42.56
61.49
74.23
80.49
80.87
76.35
68.07
57.24
45.25
33.64
23.91
17.21
14.03
14.03
16.20
19.14
21.56
22.57
21.91
19.87
17.01
13.81
10.47
6.80
2.45
-2.85
-9.01
-15.54
-21.74
-27.02
-31.15
-34.35
-37.12
-40.00
-43.37
-47.38
-51.91
-56.62
-60.81
-63.40
-62.99
-58.21
-48.21
-33.14
-14.34
5.87
24.81
40.18
50.40
54.87
53.73
47.61
37.57
24.93
11.38
-1.29
-11.40
-17.87
-20.37
-19.38
-15.96
-11.31
-6.50
-2.35
0.62
2.07
1.83
-0.11
-3.59
-8.34
-13.97
-20.05
-26.14
-31.86
-36.92
-41.21
-44.88
-48.37
-52.32
-57.22
-63.02
-68.83
-72.88
-72.95
-67.05
-54.20
-34.87
-10.93
14.89
39.74
61.30
78.06
89.20
94.36
93.57
87.29
76.63
63.31
49.47
37.13
27.68
21.56
18.33
16.99
16.40
15.65
14.17
11.69
8.08
3.32
-2.53
-9.27
-16.49
-23.73
-30.47
-36.35
-41.29
-45.45
-49.25
-53.30
-58.18
-64.20
-71.08
-77.71
-82.16
-82.17
-75.81
-62.33
-42.54
-18.68
6.25
29.38
48.59
62.76
71.51
74.89
73.19
67.06
57.65
46.71
36.27
28.12
23.28
21.73
22.59
24.53
26.25
26.90
26.11
23.82
20.09
14.93
8.34
0.43
-8.43
-17.62
-26.40
-34.18
-40.72
-46.24
-51.32
-56.69
-62.93
-70.10
-77.53
-83.74
-86.67
-84.28
-75.24
-59.54
-38.66
-15.27
7.64
27.47
42.62
52.48
57.17
57.17
53.15
46.07
37.22
28.28
20.96
16.57
15.66
17.87
22.19
27.30
32.08
35.77
38.03
38.80
38.12
36.04
32.64
28.07
22.63
16.78
11.00
5.63
0.70
-4.16
-9.67
-16.61
-25.38
-35.59
-45.82
-53.84
-57.25
-54.30
-44.55
-29.11
-10.28
9.16
26.69
40.44
49.33
52.91
51.26
44.93
35.08
23.48
12.28
3.56
-1.20
-1.46
2.32
8.96
16.85
24.37
30.12
33.05
32.55
28.51
21.31
11.76
0.91
-10.19
-20.70
-30.18
-38.61
-46.30
-53.78
-61.67
-70.38
-79.80
-89.03
-96.27
-99.11
-95.32
-83.61
-64.38
-39.79
-13.17
11.95
32.78
47.81
56.72
59.94
58.21
52.46
43.91
34.16
25.09
18.38
15.02
14.99
17.39
20.86
24.20
26.65
27.95
28.11
27.14
24.89
21.26
16.19
9.92
2.92
-4.18
-10.79
-16.46
-21.01
-24.61
-27.78
-31.31
-36.14
-42.90
-51.56
-61.07
-69.38
-73.91
-72.33
-63.41
-47.58
-26.90
-4.37
16.93
34.65
47.52
55.19
57.85
55.96
50.18
41.59
31.80
22.78
16.42
13.89
15.29
19.59
25.03
29.86
32.88
33.69
32.64
30.45
27.75
24.82
21.49
17.37
12.07
5.58
-1.72
-9.16
-16.06
-22.00
-26.99
-31.46
-36.03
-41.37
-48.00
-56.04
-65.06
-73.87
-80.53
-82.66
-78.16
-66.00
-46.75
-22.65
3.07
27.10
46.94
61.28
69.87
73.12
71.64
66.17
57.73
47.72
37.93
30.11
25.50
24.50
26.52
30.33
34.42
37.53
38.92
38.44
36.45
33.55
30.30
27.02
23.69
20.02
15.66
10.43
4.55
-1.52
-7.16
-11.93
-15.68
-18.65
-21.30
-24.19
-27.82
-32.67
-38.95
-46.40
-54.01
-59.96
-61.91
-57.74
-46.37
-28.35
-5.79
18.26
40.75
59.37
72.82
80.67
82.97
80.08
72.68
62.00
49.91
38.60
30.03
25.34
24.48
26.37
29.34
31.82
32.83
32.11
29.96
26.89
23.30
19.24
14.49
8.77
1.91
-5.91
-14.23
-22.37
-29.72
-35.89
-40.87
-45.01
-48.89
-53.16
-58.33
-64.57
-71.43
-77.72
-81.58
-80.88
-73.86
-59.84
-39.69
-15.66
9.19
31.89
50.32
63.45
71.19
73.92
72.17
66.57
58.04
47.93
37.97
29.86
24.82
23.17
24.25
26.75
29.24
30.69
30.73
29.67
28.08
26.42
24.74
22.55
19.09
13.71
6.22
-2.95
-12.93
-22.77
-31.84
-40.03
-47.72
-55.52
-64.01
-73.53
-84.14
-95.49
-106.70
-116.16
-121.67
-120.84
-111.95
-94.69
-70.58
-42.63
-14.51
10.52
30.27
43.80
51.12
52.80
49.71
43.05
34.42
25.67
18.60
14.43
13.49
15.16
18.17
21.14
23.04
23.48
22.67
21.09
19.16
16.92
14.03
9.99
4.47
-2.38
-9.94
-17.32
-23.63
-28.33
-31.32
-32.89
-33.64
-34.29
-35.50
-37.62
-40.40
-42.82
-43.13
-39.44
-30.37
-15.76
3.09
23.73
43.30
59.38
70.46
76.04
76.31
71.86
63.52
52.35
39.74
27.33
16.70
8.97
4.55
3.09
3.74
5.45
7.35
8.85
9.66
9.70
8.95
7.37
4.96
1.75
-2.19
-6.63
-11.28
-15.84
-20.07
-23.91
-27.54
-31.34
-35.81
-41.47
-48.54
-56.71
-64.88
-71.24
-73.56
-69.91
-59.34
-42.31
-20.71
2.72
25.12
44.23
58.68
67.89
71.81
70.72
65.22
56.40
45.85
35.46
26.98
21.51
19.20
19.34
20.72
22.13
22.81
22.48
21.25
19.36
16.92
13.87
10.05
5.39
0.01
-5.78
-11.57
-17.05
-22.07
-26.77
-31.52
-36.86
-43.23
-50.75
-58.84
-66.07
-70.36
-69.49
-61.91
-47.46
-27.61
-5.11
16.83
35.49
49.17
57.33
60.22
58.39
52.48
43.25
31.78
19.56
8.37
-0.18
-5.08
-6.25
-4.47
-1.19
2.03
3.93
3.83
1.79
-1.63
-5.66
-9.60
-13.04
-15.92
-18.45
-20.94
-23.81
-27.50
-32.49
-39.10
-47.06
-55.25
-61.59
-63.46
-58.63
-46.13
-26.86
-3.37
20.87
42.57
59.42
70.38
75.40
74.98
69.74
60.43
48.04
34.02
20.11
8.11
-0.66
-5.74
-7.55
-7.26
-6.31
-5.98
-7.01
-9.52
-13.20
-17.48
-21.90
-26.17
-30.23
-34.13
-37.95
-41.79
-45.82
-50.27
-55.22
-60.29
-64.40
-65.78
-62.35
-52.57
-36.09
-14.21
10.41
34.45
54.92
69.75
78.08
80.01
76.19
67.56
55.23
40.50
24.90
10.12
-2.34
-11.36
-16.55
-18.26
-17.48
-15.56
-13.77
-13.06
-13.84
-16.01
-19.22
-23.02
-27.13
-31.41
-35.85
-40.45
-45.22
-50.33
-56.10
-62.98
-71.20
-80.27
-88.71
-94.04
-93.49
-84.91
-67.77
-43.55
-15.41
12.73
37.35
56.17
68.30
74.09
74.50
70.75
64.15
56.12
48.14
41.55
37.30
35.66
36.17
37.87
39.64
40.53
39.90
37.45
33.16
27.18
19.83
11.54
2.77
-6.05
-14.62
-22.75
-30.37
-37.50
-44.28
-51.03
-58.22
-66.11
-74.39
-81.78
-86.06
-84.64
-75.52
-58.19
-34.04
-6.07
22.07
47.06
66.72
80.07
87.08
88.26
84.43
76.72
66.73
56.40
47.64
41.80
39.30
39.59
41.44
43.50
44.81
44.92
43.81
41.61
38.32
33.80
27.95
20.86
12.97
4.92
-2.68
-9.52
-15.67
-21.65
-28.11
-35.63
-44.43
-54.11
-63.43
-70.43
-72.85
-68.73
-57.26
-39.24
-16.98
6.28
27.37
43.87
54.55
59.19
58.23
52.46
43.01
31.35
19.27
8.67
1.03
-2.89
-3.26
-0.98
2.69
6.47
9.41
10.88
10.65
8.68
5.10
0.12
-6.00
-12.98
-20.52
-28.27
-35.90
-43.15
-49.99
-56.68
-63.71
-71.47
-79.79
-87.60
-92.91
-93.29
-86.65
-72.15
-50.61
-24.45
3.05
28.56
49.46
64.21
72.27
73.90
69.92
61.59
50.50
38.53
27.49
18.91
13.75
12.23
13.86
17.64
22.31
26.62
29.56
30.48
29.14
25.66
20.42
13.93
6.71
-0.79
-8.29
-15.69
-23.07
-30.71
-38.99
-48.31
-58.78
-69.83
-80.00
-86.94
-87.98
-81.06
-65.54
-42.68
-15.37
12.75
38.33
59.04
73.79
82.45
85.35
83.10
76.64
67.36
57.12
47.87
41.12
37.48
36.58
37.35
38.56
39.29
39.13
37.98
35.84
32.53
27.70
21.11
12.81
3.28
-6.74
-16.50
-25.52
-33.73
-41.35
-48.80
-56.55
-65.03
-74.53
-84.90
-95.26
-103.85
-108.16
-105.69
-94.81
-75.59
-49.94
-21.13
7.18
31.97
51.33
64.47
71.33
72.23
67.70
58.75
47.00
34.62
23.98
16.95
14.38
15.85
19.96
24.82
28.76
30.80
30.72
28.91
25.93
22.18
17.73
12.37
5.86
-1.79
-10.20
-18.68
-26.45
-32.97
-38.08
-42.08
-45.51
-49.04
-53.25
-58.55
-65.15
-72.79
-80.58
-86.78
-89.06
-85.04
-73.18
-53.49
-27.78
0.77
28.60
52.76
71.47
84.21
91.28
93.28
90.92
84.97
76.59
67.34
59.04
53.31
51.07
52.23
55.74
60.02
63.57
65.41
65.34
63.74
61.24
58.26
54.88
50.79
45.60
39.08
31.36
22.93
14.45
6.50
-0.64
-7.01
-12.97
-18.97
-25.41
-32.57
-40.61
-49.56
-59.16
-68.72
-76.85
-81.57
-80.77
-72.99
-58.07
-37.47
-13.92
9.46
29.95
45.80
56.18
60.86
59.90
53.64
43.00
29.67
15.96
4.34
-3.30
-6.29
-5.15
-1.39
3.27
7.41
10.26
11.69
11.89
11.12
9.44
6.72
2.81
-2.31
-8.30
-14.60
-20.53
-25.60
-29.68
-33.04
-36.24
-39.93
-44.71
-50.85
-58.22
-66.08
-73.01
-77.10
-76.39
-69.38
-55.69
-36.24
-13.06
11.14
33.65
52.25
65.42
72.42
73.21
68.46
59.46
48.02
36.20
25.88
18.40
14.30
13.29
14.54
16.92
19.38
21.13
21.66
20.75
18.33
14.42
9.17
2.84
-4.17
-11.39
-18.36
-24.84
-30.78
-36.42
-42.15
-48.51
-55.86
-64.18
-72.77
-80.11
-84.02
-82.18
-72.96
-56.08
-33.04
-6.75
19.22
41.66
58.46
68.74
72.69
71.09
64.96
55.47
43.99
32.07
21.29
12.95
7.76
5.71
6.12
7.94
10.09
11.68
12.14
11.23
8.91
5.31
0.69
-4.60
-10.21
-15.81
-21.23
-26.47
-31.72
-37.27
-43.54
-50.86
-59.32
-68.41
-76.76
-82.18
-82.15
-74.57
-58.75
-35.80
-8.58
19.18
43.91
63.07
75.51
81.19
80.79
75.31
65.94
54.11
41.55
30.04
21.15
15.80
14.02
15.02
17.59
20.49
22.77
23.97
23.90
22.55
19.85
15.79
10.46
4.20
-2.45
-8.87
-14.65
-19.67
-24.21
-28.85
-34.24
-40.85
-48.59
-56.58
-63.05
-65.74
-62.52
-52.25
-35.38
-13.95
8.88
29.88
46.58
57.65
62.92
62.90
58.38
50.24
39.57
27.77
16.52
7.44
1.66
-0.60
0.02
2.29
4.89
6.88
7.77
7.51
6.14
3.69
0.10
-4.58
-10.12
-16.16
-22.28
-28.22
-33.99
-39.84
-46.15
-53.29
-61.31
-69.71
-77.30
-82.23
-82.41
-76.10
-62.64
-42.87
-19.08
5.65
28.21
46.21
58.29
64.08
63.94
58.72
49.68
38.47
27.03
17.35
11.02
8.78
10.40
14.72
20.09
24.85
27.75
28.22
26.27
22.38
17.16
11.20
4.94
-1.41
-7.82
-14.35
-21.14
-28.38
-36.31
-45.15
-54.92
-65.16
-74.66
-81.42
-83.00
-77.24
-63.19
-41.60
-15.01
12.95
38.59
59.10
72.98
79.97
80.61
75.81
66.71
54.71
41.53
29.07
19.10
12.75
10.24
10.88
13.45
16.59
19.21
20.65
20.63
19.13
16.27
12.26
7.37
1.93
-3.77
-9.56
-15.46
-21.69
-28.54
-36.31
-45.19
-55.02
-65.10
-74.06
-79.90
-80.40
-73.75
-59.34
-38.12
-12.52
14.15
38.61
58.36
71.98
79.09
79.99
75.46
66.61
54.95
42.38
30.82
21.94
16.62
14.83
15.75
18.15
20.84
22.95
24.00
23.84
22.41
19.67
15.59
10.24
3.88
-3.02
-9.93
-16.38
-22.18
-27.47
-32.71
-38.57
-45.63
-54.17
-63.79
-73.23
-80.43
-82.96
-78.73
-66.76
-47.71
-23.80
1.82
25.91
45.98
60.60
69.32
72.34
70.19
63.75
54.26
43.46
33.34
25.71
21.67
21.43
24.34
29.32
35.21
41.13
46.50
50.85
53.72
54.60
53.03
48.79
42.08
33.58
24.24
15.13
7.18
0.98
-3.33
-6.13
-8.23
-10.70
-14.43
-19.64
-25.51
-30.19
-31.31
-26.84
-16.04
0.13
19.14
37.68
52.66
61.93
64.52
60.50
50.60
35.97
18.18
-0.88
-19.07
-34.37
-45.44
-51.91
-54.41
-54.21
-52.64
-50.52
-48.05
-44.89
-40.69
-35.39
-29.47
-23.76
-19.14
-16.09
-14.57
-14.05
-13.86
-13.54
-13.08
-12.89
-13.58
-15.82
-20.12
-26.77
-35.67
-46.09
-56.45
-64.43
-67.37
-63.22
-51.31
-32.87
-10.73
11.52
30.53
43.95
50.69
50.73
44.77
34.03
20.21
5.47
-7.86
-17.70
-22.81
-23.10
-19.63
-14.13
-8.37
-3.61
-0.29
1.77
3.03
3.79
3.93
3.03
0.70
-3.07
-7.78
-12.57
-16.65
-19.63
-21.71
-23.52
-25.80
-29.16
-34.00
-40.33
-47.72
-54.98
-60.10
-60.47
-53.78
-38.95
-16.97
9.18
35.39
57.79
73.84
82.74
84.99
81.61
73.55
61.65
47.05
31.49
17.19
6.31
0.11
-1.44
0.38
3.71
6.85
8.89
9.66
9.51
8.78
7.46
5.16
1.44
-3.91
-10.60
-17.86
-24.75
-30.55
-34.93
-38.08
-40.53
-42.97
-46.01
-50.16
-55.57
-61.87
-67.88
-71.63
-70.76
-63.27
-48.41
-27.21
-2.35
22.58
44.18
60.10
69.38
72.25
69.59
62.58
52.51
40.83
29.21
19.30
12.44
9.22
9.39
11.90
15.36
18.43
20.15
20.06
18.18
14.76
10.22
5.02
-0.44
-5.82
-10.90
-15.66
-20.18
-24.62
-29.22
-34.25
-40.10
-47.05
-55.05
-63.29
-70.11
-73.18
-70.27
-60.16
-43.31
-21.89
0.85
21.67
38.26
49.53
55.45
56.48
53.16
46.08
36.10
24.57
13.34
4.33
-1.10
-2.55
-0.72
2.89
6.62
9.13
9.76
8.55
5.94
2.49
-1.40
-5.52
-9.91
-14.66
-19.87
-25.61
-31.96
-39.02
-46.89
-55.50
-64.27
-71.86
-76.25
-75.21
-67.13
-51.88
-31.07
-7.69
14.82
33.69
47.48
55.96
59.62
58.97
54.33
46.04
34.89
22.36
10.42
0.91
-5.03
-7.30
-6.71
-4.57
-2.16
-0.34
0.45
0.16
-1.08
-3.11
-5.78
-8.98
-12.58
-16.51
-20.72
-25.32
-30.62
-37.02
-44.70
-53.25
-61.38
-66.89
-67.24
-60.39
-45.65
-24.13
1.50
27.81
51.54
70.40
83.22
89.84
90.67
86.43
78.05
66.84
54.40
42.52
32.81
26.34
23.34
23.25
24.88
26.88
28.07
27.72
25.63
22.05
17.45
12.32
7.06
1.97
-2.84
-7.39
-11.98
-17.23
-23.97
-32.85
-43.88
-55.98
-66.89
-73.71
-73.78
-65.72
-49.96
-28.74
-5.33
16.90
35.33
48.46
55.73
57.29
53.67
45.70
34.62
22.08
10.00
0.16
-6.17
-8.60
-7.64
-4.49
-0.62
2.62
4.37
4.39
2.92
0.56
-2.15
-4.90
-7.71
-10.82
-14.51
-19.00
-24.41
-30.92
-38.69
-47.68
-57.21
-65.71
-70.84
-70.07
-61.67
-45.49
-23.21
2.13
27.11
48.83
65.44
76.16
80.90
79.98
74.05
64.25
52.22
40.04
29.71
22.64
19.31
19.16
20.94
23.16
24.57
24.48
22.76
19.76
16.00
11.96
7.91
3.88
-0.28
-4.82
-10.03
-16.20
-23.60
-32.34
-42.00
-51.40
-58.51
-60.86
-56.37
-44.18
-25.18
-1.85
22.42
44.35
61.56
72.78
77.72
76.67
70.29
59.60
46.11
31.82
18.90
9.14
3.51
1.87
3.11
5.59
7.69
8.24
6.75
3.39
-1.30
-6.66
-12.15
-17.50
-22.70
-27.92
-33.52
-39.99
-47.86
-57.45
-68.36
-79.20
-87.52
-90.36
-85.22
-71.11
-49.00
-21.73
6.93
33.32
54.77
69.85
78.21
80.18
76.48
68.17
56.72
43.98
32.01
22.59
16.87
15.07
16.46
19.67
23.09
25.27
25.31
22.93
18.43
12.48
5.82
-1.00
-7.76
-14.53
-21.59
-29.26
-37.82
-47.42
-58.08
-69.42
-80.45
-89.38
-93.82
-91.35
-80.32
-60.71
-34.35
-4.59
24.63
49.84
68.74
80.46
85.21
83.86
77.63
67.93
56.45
45.02
35.34
28.65
25.37
25.01
26.48
28.51
30.06
30.56
29.90
28.14
25.35
21.48
16.45
10.28
3.19
-4.33
-11.67
-18.35
-24.16
-29.31
-34.41
-40.32
-47.79
-57.00
-67.14
-76.21
-81.44
-80.06
-70.34
-52.37
-28.19
-1.23
24.74
46.67
62.71
72.19
75.24
72.35
64.28
52.26
38.07
23.94
12.08
4.04
0.27
0.10
2.13
4.85
7.18
8.56
8.90
8.23
6.46
3.42
-1.01
-6.68
-13.13
-19.67
-25.64
-30.65
-34.73
-38.26
-41.84
-46.01
-51.20
-57.54
-64.82
-72.37
-78.96
-82.80
-81.90
-74.59
-60.19
-39.55
-14.92
10.51
33.50
51.50
63.11
68.04
66.82
60.54
50.67
38.99
27.49
17.97
11.70
9.12
9.71
12.39
15.86
19.08
21.39
22.53
22.41
21.01
18.29
14.24
8.98
2.80
-3.91
-10.65
-17.05
-22.87
-28.16
-33.25
-38.69
-45.14
-52.98
-62.00
-71.05
-78.00
-80.24
-75.46
-62.52
-42.09
-16.59
10.51
35.64
56.07
70.30
77.96
79.46
75.65
67.65
56.87
44.99
33.80
24.84
19.02
16.43
16.46
18.07
20.26
22.21
23.48
23.75
22.81
20.43
16.54
11.26
4.93
-1.92
-8.76
-15.26
-21.35
-27.18
-33.14
-39.62
-47.05
-55.48
-64.40
-72.47
-77.57
-77.32
-69.85
-54.62
-32.75
-6.89
19.58
43.48
62.50
75.39
81.83
82.10
76.91
67.40
55.22
42.42
31.04
22.65
17.93
16.56
17.55
19.62
21.68
23.05
23.40
22.59
20.55
17.25
12.75
7.31
1.36
-4.59
-10.11
-15.01
-19.36
-23.48
-27.88
-33.12
-39.69
-47.66
-56.44
-64.52
-69.61
-69.22
-61.52
-46.06
-24.19
1.29
26.90
49.45
66.75
77.76
82.39
81.14
74.79
64.40
51.41
37.54
24.64
14.25
7.29
3.87
3.38
4.76
6.81
8.45
8.92
7.81
5.06
0.93
-4.14
-9.67
-15.23
-20.61
-25.80
-30.95
-36.31
-42.13
-48.64
-55.86
-63.41
-70.25
-74.64
-74.44
-67.78
-53.87
-33.52
-9.15
15.96
38.60
56.49
68.70
75.36
77.21
75.12
69.87
62.18
52.92
43.09
33.71
25.66
19.40
14.95
11.88
9.47
6.85
3.31
-1.56
-7.71
-14.69
-21.88
-28.72
-34.96
-40.69
-46.23
-52.03
-58.55
-66.09
-74.67
-83.75
-92.05
-97.51
-97.70
-90.61
-75.49
-53.34
-26.84
0.43
24.97
44.28
57.09
63.26
63.28
57.99
48.51
36.30
23.23
11.33
2.29
-2.94
-4.42
-3.10
-0.45
2.06
3.37
2.98
0.96
-2.29
-6.27
-10.56
-14.92
-19.26
-23.63
-28.11
-32.92
-38.46
-45.16
-53.20
-62.04
-70.10
-74.87
-73.60
-64.32
-46.80
-22.80
4.33
30.78
53.34
70.09
80.39
84.35
82.45
75.24
63.63
49.15
33.97
20.57
10.99
6.24
6.05
9.00
13.18
16.80
18.66
18.31
15.98
12.23
7.72
2.94
-1.90
-6.93
-12.38
-18.52
-25.53
-33.49
-42.40
-51.98
-61.46
-69.34
-73.47
-71.55
-61.97
-44.66
-21.35
4.76
29.95
51.12
66.41
75.31
78.25
76.04
69.62
60.09
48.76
37.27
27.25
19.99
16.08
15.30
16.75
19.14
21.18
21.84
20.59
17.43
12.84
7.54
2.17
-2.94
-7.88
-13.00
-18.68
-25.14
-32.51
-40.82
-49.98
-59.56
-68.40
-74.61
-75.81
-69.99
-56.38
-35.97
-11.39
13.92
36.71
54.68
66.64
72.36
72.08
66.44
56.44
43.74
30.57
19.38
12.22
10.08
12.64
18.33
24.94
30.24
32.66
31.54
27.18
20.50
12.75
5.00
-2.13
-8.60
-14.88
-21.73
-29.91
-39.92
-51.74
-64.56
-76.67
-85.61
-88.63
-83.60
-69.83
-48.50
-22.57
4.14
28.00
46.41
58.19
63.25
62.16
55.77
45.19
31.88
17.77
5.01
-4.55
-9.86
-11.07
-9.35
-6.44
-4.04
-3.27
-4.40
-7.05
-10.53
-14.28
-18.12
-22.27
-27.15
-33.09
-40.28
-48.76
-58.46
-69.04
-79.62
-88.47
-93.16
-91.11
-80.61
-61.68
-36.37
-8.20
18.87
41.66
58.34
68.44
72.27
70.47
63.77
53.23
40.41
27.47
16.70
9.91
7.88
10.13
15.18
21.19
26.48
29.96
31.18
30.09
26.86
21.63
14.55
5.87
-4.06
-14.79
-25.95
-37.40
-49.14
-61.06
-72.49
-81.94
-87.21
-86.01
-76.81
-59.59
-36.12
-9.48
16.69
39.25
56.04
66.12
69.43
66.52
58.35
46.29
32.16
18.13
6.31
-1.70
-5.26
-4.75
-1.45
2.97
6.88
9.12
9.13
6.91
2.90
-2.33
-8.17
-14.18
-20.08
-25.82
-31.59
-37.76
-44.85
-53.21
-62.72
-72.49
-80.73
-84.99
-82.84
-72.71
-54.59
-30.31
-3.11
23.25
45.46
61.39
70.29
72.52
69.14
61.54
51.26
39.96
29.36
21.02
15.98
14.52
16.04
19.31
22.88
25.50
26.39
25.34
22.57
18.53
13.72
8.52
3.12
-2.45
-8.31
-14.63
-21.63
-29.54
-38.43
-47.98
-57.16
-64.13
-66.54
-62.13
-49.65
-29.48
-3.77
24.06
50.32
71.95
87.09
95.17
96.50
92.03
83.06
71.20
58.37
46.50
37.23
31.46
29.22
29.74
31.73
33.83
34.94
34.35
31.83
27.51
21.80
15.22
8.28
1.33
-5.47
-12.16
-18.93
-26.05
-33.92
-42.84
-52.87
-63.36
-72.72
-78.53
-78.08
-69.34
-51.86
-27.17
1.55
30.37
55.74
75.25
87.87
93.58
93.01
87.05
76.89
64.09
50.61
38.47
29.36
24.15
22.69
24.00
26.78
29.83
32.42
34.16
34.84
34.20
31.83
27.43
21.04
13.17
4.72
-3.37
-10.57
-16.94
-23.14
-30.11
-38.65
-49.06
-60.81
-72.48
-81.83
-86.27
-83.51
-72.29
-52.97
-27.64
0.32
27.16
49.61
65.55
74.20
75.83
71.49
62.70
51.31
39.42
29.15
22.18
19.36
20.42
24.18
28.99
33.37
36.43
37.86
37.75
36.15
32.97
28.00
21.16
12.76
3.43
-6.00
-14.85
-22.77
-29.79
-36.22
-42.51
-49.16
-56.70
-65.50
-75.40
-85.40
-93.49
-97.04
-93.59
-81.84
-62.31
-37.36
-10.44
14.89
35.85
50.85
59.37
61.59
58.17
50.13
39.03
26.84
15.67
7.25
2.46
1.21
2.64
5.54
8.82
11.68
13.67
14.49
13.90
11.73
7.91
2.60
-3.80
-10.70
-17.57
-24.02
-29.98
-35.66
-41.52
-48.07
-55.70
-64.42
-73.59
-81.74
-86.70
-86.21
-78.55
-63.33
-41.74
-16.31
9.74
33.38
52.34
65.35
72.01
72.63
68.00
59.42
48.66
37.76
28.71
23.00
21.31
23.43
28.40
34.77
40.99
45.65
47.70
46.60
42.35
35.49
26.91
17.57
8.25
-0.65
-9.09
-17.24
-25.39
-33.77
-42.64
-52.16
-62.18
-71.95
-79.84
-83.50
-80.55
-69.50
-50.55
-25.86
1.03
26.26
46.72
60.68
67.71
68.30
63.36
54.02
41.69
28.10
15.19
4.67
-2.37
-5.74
-6.03
-4.33
-1.75
0.77
2.53
3.04
1.98
-0.73
-4.89
-9.97
-15.39
-20.60
-25.35
-29.68
-33.89
-38.46
-43.90
-50.69
-58.98
-68.27
-77.07
-82.95
-83.14
-75.47
-59.37
-36.34
-9.58
16.93
39.69
56.39
66.22
69.44
66.95
59.88
49.47
37.24
24.85
13.98
5.97
1.54
0.59
2.34
5.57
8.99
11.55
12.63
12.11
10.20
7.31
3.86
0.11
-3.82
-7.91
-12.22
-16.83
-21.97
-27.99
-35.38
-44.47
-55.05
-65.98
-75.13
-79.75
-77.36
-66.62
-48.08
-24.15
1.60
25.46
44.55
57.32
63.49
63.59
58.63
49.83
38.62
26.65
15.64
7.05
1.78
-0.08
0.87
3.55
6.83
9.72
11.60
12.14
11.25
9.01
5.63
1.35
-3.55
-8.84
-14.36
-20.08
-26.02
-32.33
-39.28
-47.11
-55.79
-64.67
-72.24
-76.29
-74.46
-65.15
-48.32
-25.74
-0.60
23.48
43.43
57.40
64.80
65.92
61.50
52.45
40.03
25.92
12.15
0.77
-6.75
-9.97
-9.46
-6.56
-2.77
0.68
3.03
4.00
3.60
1.95
-0.77
-4.29
-8.28
-12.40
-16.49
-20.64
-25.24
-30.87
-37.98
-46.46
-55.31
-62.54
-65.60
-62.10
-50.80
-32.21
-8.64
16.46
39.51
57.73
69.63
74.86
73.90
67.54
56.82
43.07
27.98
13.52
1.58
-6.48
-10.27
-10.39
-8.27
-5.64
-4.00
-4.16
-6.18
-9.45
-13.17
-16.74
-20.00
-23.23
-26.92
-31.51
-37.24
-44.19
-52.29
-61.20
-70.11
-77.45
-80.97
-78.32
-67.83
-49.42
-24.88
2.53
29.05
51.52
68.01
77.95
81.67
79.86
73.31
62.94
50.04
36.34
23.80
14.14
8.33
6.31
7.11
9.21
11.13
11.77
10.66
7.85
3.81
-0.94
-5.96
-11.06
-16.24
-21.69
-27.65
-34.37
-42.06
-50.79
-60.28
-69.66
-77.37
-81.24
-79.10
-69.46
-52.19
-28.84
-2.29
23.96
46.68
63.60
73.61
76.69
73.56
65.44
53.91
40.84
28.24
17.93
11.19
8.44
9.13
12.02
15.55
18.32
19.40
18.47
15.70
11.56
6.55
1.10
-4.48
-9.91
-14.92
-19.32
-23.18
-27.01
-31.79
-38.68
-48.48
-60.94
-74.44
-86.20
-93.16
-93.04
-85.18
-70.76
-52.21
-32.32
-13.43
2.88
15.64
24.26
28.37
27.97
23.79
17.37
10.82
6.24
5.06
7.61
13.09
19.91
26.22
30.47
31.81
30.21
26.37
21.42
16.48
12.33
9.19
6.82
4.65
2.13
-1.21
-5.69
-11.45
-18.34
-25.73
-32.33
-36.23
-35.35
-28.11
-14.14
5.44
28.20
51.02
70.86
85.43
93.46
94.73
89.91
80.33
67.77
54.22
41.57
31.32
24.25
20.37
19.01
19.09
19.45
19.12
17.57
14.66
10.60
5.73
0.44
-4.97
-10.33
-15.62
-21.01
-26.92
-33.91
-42.34
-51.92
-61.31
-68.06
-69.25
-62.42
-46.68
-23.20
4.90
33.60
58.98
78.20
89.74
93.14
88.74
77.43
60.79
41.13
21.37
4.40
-7.68
-14.27
-16.26
-15.62
-14.52
-14.53
-16.27
-19.45
-23.37
-27.33
-31.02
-34.49
-38.09
-42.26
-47.48
-54.18
-62.62
-72.60
-83.12
-92.21
-97.19
-95.38
-85.05
-66.18
-40.62
-11.62
17.16
42.60
62.66
76.32
83.32
83.83
78.44
68.35
55.41
41.99
30.46
22.55
18.87
18.89
21.23
24.24
26.52
27.21
26.02
22.99
18.31
12.09
4.34
-5.01
-16.00
-28.59
-42.61
-57.56
-72.46
-85.69
-95.10
-98.50
-94.32
-82.30
-63.61
-40.51
-15.69
8.47
30.20
48.20
61.44
69.08
70.75
66.96
59.40
50.58
43.06
38.46
36.92
37.18
37.25
35.34
30.54
23.03
13.88
4.47
-3.97
-10.70
-15.58
-19.02
-21.89
-25.25
-30.15
-37.17
-46.08
-55.56
-63.38
-66.94
-64.10
-53.90
-36.96
-15.22
8.49
31.26
50.53
64.43
71.87
72.48
66.72
55.88
41.95
27.28
14.10
3.97
-2.49
-5.60
-6.35
-5.98
-5.57
-5.91
-7.44
-10.39
-14.87
-20.92
-28.53
-37.66
-48.22
-60.15
-73.20
-86.75
-99.47
-109.35
-114.09
-111.76
-101.58
-84.26
-61.74
-36.52
-11.01
12.75
32.95
47.89
56.09
56.85
50.99
41.01
30.63
23.42
21.51
24.77
31.06
37.36
41.08
41.00
37.38
31.44
24.40
16.83
8.52
-1.22
-13.09
-27.40
-44.01
-62.42
-81.87
-101.14
-118.41
-131.17
-136.61
-132.41
-117.63
-93.23
-61.95
-27.63
5.80
35.13
58.24
74.13
82.85
85.28
83.11
78.55
73.97
71.30
71.56
74.58
79.15
83.51
85.97
85.48
81.89
75.99
69.14
62.80
58.00
54.95
52.85
50.12
44.91
35.80
22.49
6.25
-10.23
-23.55
-30.56
-29.32
-19.65
-3.04
17.94
40.31
61.31
78.68
90.69
96.16
94.58
86.23
72.37
55.13
37.10
20.74
7.74
-1.33
-7.01
-10.54
-13.22
-15.94
-18.96
-22.05
-24.94
-27.65
-30.58
-34.30
-39.37
-46.07
-54.44
-64.29
-75.14
-86.02
-95.32
-100.81
-100.20
-91.88
-75.52
-52.41
-25.03
3.49
30.15
52.42
68.42
76.94
77.55
70.80
58.43
43.16
28.10
15.92
8.09
4.61
4.17
4.90
5.12
3.96
1.45
-1.64
-4.42
-6.31
-7.38
-8.31
-10.23
-14.26
-21.16
-30.91
-42.39
-53.32
-60.61
-61.06
-52.34
-33.78
-6.78
25.56
59.26
90.57
116.64
135.84
147.50
151.61
148.67
139.68
126.41
111.40
97.56
87.59
83.10
84.14
89.17
95.64
100.85
102.82
100.73
94.83
85.95
74.93
62.34
48.44
33.29
17.00
-0.20
-17.91
-35.38
-51.39
-64.16
-71.69
-72.44
-66.06
-53.90
-38.74
-23.89
-12.10
-4.74
-1.67
-1.73
-3.60
-6.32
-9.55
-13.32
-17.69
-22.52
-27.52
-32.41
-37.17
-41.98
-47.14
-52.74
-58.47
-63.63
-67.31
-68.79
-67.92
-65.26
-62.01
-59.62
-59.43
-62.25
-68.15
-76.29
-84.95
-91.68
-93.75
-88.86
-75.90
-55.45
-29.83
-2.47
23.07
43.98
58.82
67.45
70.64
69.43
64.79
57.48
48.32
38.30
28.78
21.21
16.81
16.22
19.33
25.36
33.17
41.52
49.22
55.23
58.59
58.63
55.04
48.05
38.36
26.85
14.17
0.44
-14.58
-30.98
-48.07
-63.96
-75.85
-80.85
-77.14
-64.72
-45.60
-23.13
-0.91
18.24
32.76
42.23
46.92
47.27
43.69
36.70
27.18
16.50
6.36
-1.57
-6.18
-7.23
-5.35
-1.80
2.01
4.88
6.09
5.40
2.95
-0.95
-5.94
-11.64
-17.70
-23.76
-29.55
-34.94
-40.02
-45.21
-51.10
-58.25
-66.80
-76.08
-84.46
-89.52
-88.72
-80.24
-63.74
-40.68
-14.02
12.60
35.85
53.40
64.28
68.59
67.18
61.23
52.08
41.14
29.98
20.14
12.88
8.88
8.02
9.43
11.74
13.60
14.03
12.61
9.41
4.82
-0.72
-6.85
-13.28
-19.76
-26.11
-32.18
-37.96
-43.64
-49.51
-55.94
-63.12
-70.87
-78.35
-84.04
-85.92
-82.00
-71.01
-53.00
-29.58
-3.52
21.97
44.12
61.20
72.58
78.54
79.82
77.35
72.18
65.48
58.46
52.18
47.34
44.14
42.26
41.16
40.25
39.06
37.25
34.60
31.03
26.62
21.60
16.31
11.01
5.77
0.37
-5.62
-12.69
-21.24
-31.42
-42.95
-54.97
-65.97
-73.88
-76.49
-72.17
-60.44
-42.40
-20.49
2.16
22.62
38.85
49.90
55.76
56.95
54.15
48.15
39.90
30.64
21.80
14.81
10.75
10.06
12.41
16.87
22.20
27.26
31.31
34.11
35.83
36.81
37.33
37.44
36.89
35.29
32.26
27.53
21.01
12.82
3.39
-6.38
-15.02
-20.63
-21.26
-15.65
-3.69
13.31
32.94
52.42
69.29
81.97
89.82
92.89
91.56
86.41
78.18
67.97
57.16
47.24
39.40
34.17
31.28
29.71
28.02
24.76
18.82
9.71
-2.35
-16.45
-31.27
-45.43
-57.85
-68.18
-76.82
-84.82
-93.36
-103.21
-114.20
-125.05
-133.58
-137.41
-134.66
-124.68
-108.27
-87.48
-64.99
-43.44
-24.92
-10.79
-1.69
2.22
1.23
-3.91
-11.87
-20.90
-29.02
-34.60
-36.73
-35.52
-31.93
-27.37
-23.17
-20.16
-18.58
-18.15
-18.50
-19.36
-20.78
-23.01
-26.39
-31.18
-37.44
-44.93
-52.94
-60.25
-65.22
-66.13
-61.73
-51.71
-36.94
-19.28
-1.07
15.51
28.72
37.44
41.00
39.14
32.10
20.83
7.04
-7.05
-19.25
-28.04
-32.99
-34.71
-34.49
-33.77
-33.67
-34.73
-37.02
-40.30
-44.25
-48.67
-53.60
-59.29
-66.16
-74.62
-84.83
-96.36
-107.93
-117.38
-122.05
-119.52
-108.47
-89.28
-64.10
-36.17
-8.90
14.99
33.93
47.43
55.69
59.27
58.96
55.87
51.47
47.37
44.95
44.96
47.27
50.98
54.74
57.17
57.12
53.91
47.44
38.17
27.07
15.35
4.10
-6.11
-15.41
-24.49
-34.06
-44.13
-53.65
-60.55
-62.48
-57.78
-46.28
-29.50
-10.13
8.83
24.89
36.50
43.05
44.61
41.65
34.98
25.81
15.79
6.75
0.34
-2.53
-1.94
1.02
4.71
7.50
8.34
6.98
3.86
-0.21
-4.52
-8.79
-13.29
-18.63
-25.46
-33.97
-43.66
-53.10
-60.15
-62.45
-58.11
-46.34
-27.86
-4.77
20.01
43.50
63.29
77.88
86.65
89.71
87.69
81.63
73.06
63.80
55.75
50.46
48.69
50.25
54.11
58.75
62.63
64.66
64.34
61.79
57.51
52.08
45.83
38.71
30.29
20.04
7.79
-5.93
-19.66
-31.24
-38.33
-39.16
-33.24
-21.53
-6.23
9.86
24.11
34.54
40.11
40.63
36.54
28.76
18.53
7.36
-3.16
-11.68
-17.44
-20.41
-21.24
-20.77
-19.71
-18.39
-16.90
-15.46
-14.70
-15.64
-19.33
-26.38
-36.67
-49.37
-63.31
-77.23
-89.88
-99.84
-105.38
-104.68
-96.39
-80.33
-57.93
-31.97
-5.92
16.99
34.46
45.35
49.55
47.66
40.82
30.61
18.98
8.03
-0.45
-5.35
-6.58
-4.98
-1.97
0.99
2.80
2.96
1.50
-1.21
-4.80
-8.98
-13.74
-19.31
-26.01
-34.05
-43.18
-52.46
-60.15
-64.03
-62.00
-52.77
-36.42
-14.52
10.28
34.91
56.61
73.32
83.85
87.76
85.29
77.34
65.42
51.53
37.91
26.52
18.72
14.90
14.58
16.54
19.30
21.52
22.38
21.74
20.10
18.33
17.27
17.25
17.85
17.97
16.17
11.34
3.35
-6.61
-16.16
-22.44
-23.11
-17.23
-5.53
9.89
26.33
41.31
52.92
59.90
61.42
56.98
46.58
31.06
12.21
-7.48
-25.48
-39.90
-49.86
-55.38
-57.05
-55.54
-51.57
-45.91
-39.44
-33.11
-27.73
-23.76
-21.43
-20.95
-22.81
-27.69
-36.22
-48.36
-62.97
-77.81
-89.91
-96.41
-95.26
-85.79
-68.81
-46.36
-21.17
3.93
26.48
44.68
57.42
64.21
65.13
60.78
52.34
41.59
30.66
21.65
16.11
14.62
16.63
20.73
25.15
28.40
29.66
28.91
26.68
23.67
20.37
16.94
13.19
8.84
3.66
-2.47
-9.56
-17.46
-25.65
-33.05
-37.90
-38.07
-31.68
-17.81
3.01
28.75
56.46
82.95
105.57
122.52
132.96
136.83
134.76
127.89
117.81
106.34
95.26
85.98
79.35
75.52
74.08
74.24
75.05
75.66
75.40
73.87
70.86
66.36
60.45
53.28
45.07
36.07
26.56
16.73
6.69
-3.66
-14.58
-26.28
-38.74
-51.32
-62.63
-70.69
-73.47
-69.56
-58.85
-42.73
-23.70
-4.70
11.74
23.95
31.24
33.65
31.62
25.89
17.49
7.78
-1.63
-9.24
-14.01
-15.62
-14.48
-11.51
-7.72
-3.93
-0.64
1.92
3.62
4.29
3.66
1.51
-2.23
-7.35
-13.36
-19.63
-25.64
-31.18
-36.48
-42.13
-48.88
-57.30
-67.47
-78.78
-89.83
-98.65
-103.14
-101.69
-93.79
-80.22
-62.93
-44.38
-26.90
-12.20
-1.21
5.75
8.75
8.18
4.71
-0.53
-6.09
-10.43
-12.39
-11.46
-7.99
-2.91
2.56
7.30
10.58
12.11
11.97
10.41
7.76
4.24
0.07
-4.50
-9.20
-13.75
-18.03
-22.14
-26.44
-31.40
-37.37
-44.29
-51.54
-57.86
-61.52
-60.71
-54.06
-41.17
-22.88
-1.16
21.32
41.87
58.36
69.61
75.33
75.92
72.26
65.49
56.95
48.07
40.21
34.41
31.17
30.32
31.18
32.73
33.96
34.05
32.52
29.21
24.26
17.97
10.79
3.18
-4.43
-11.76
-18.68
-25.23
-31.59
-38.04
-44.84
-52.15
-59.90
-67.59
-74.15
-78.03
-77.49
-71.14
-58.50
-40.37
-18.80
3.47
23.70
39.78
50.64
56.14
56.83
53.61
47.56
39.87
31.83
24.68
19.42
16.60
16.20
17.76
20.53
23.77
26.84
29.25
30.60
30.58
28.90
25.43
20.30
13.94
7.08
0.59
-4.87
-9.01
-12.04
-14.70
-17.91
-22.44
-28.41
-35.02
-40.54
-42.78
-39.76
-30.52
-15.51
3.35
23.32
41.63
56.29
66.49
72.48
75.09
75.14
73.01
68.66
61.98
53.22
43.18
33.13
24.27
17.35
12.39
8.93
6.40
4.37
2.59
0.63
-2.21
-6.92
-14.22
-24.08
-35.51
-46.87
-56.56
-63.72
-68.49
-71.73
-74.62
-78.07
-82.58
-88.09
-94.02
-99.27
-102.22
-101.02
-94.02
-80.50
-61.05
-37.59
-12.93
10.03
29.00
42.68
50.74
53.57
51.98
47.04
40.05
32.43
25.62
20.76
18.51
18.83
21.12
24.43
27.78
30.35
31.65
31.41
29.55
26.01
20.87
14.30
6.69
-1.38
-9.22
-16.26
-22.22
-27.23
-31.81
-36.67
-42.48
-49.61
-57.94
-66.78
-74.85
-80.45
-81.80
-77.55
-67.20
-51.48
-32.24
-12.00
6.66
21.76
32.32
38.31
40.38
39.55
36.88
33.40
30.01
27.53
26.52
27.22
29.49
32.84
36.52
39.79
42.16
43.43
43.74
43.39
42.66
41.62
40.02
37.44
33.42
27.71
20.30
11.48
1.56
-9.29
-21.03
-33.67
-46.82
-59.44
-69.77
-75.69
-75.40
-68.15
-54.66
-37.05
-18.17
-0.84
12.89
21.99
26.36
26.53
23.27
17.48
10.16
2.50
-4.26
-8.96
-10.91
-9.97
-6.70
-2.03
2.92
7.23
10.32
11.94
12.04
10.68
7.94
3.99
-0.91
-6.34
-11.85
-17.10
-21.94
-26.46
-30.95
-35.81
-41.42
-47.93
-55.00
-61.67
-66.27
-66.80
-61.47
-49.46
-31.33
-9.07
14.44
36.21
53.91
66.23
72.87
74.26
71.19
64.65
55.75
45.82
36.30
28.56
23.58
21.65
22.30
24.49
26.97
28.67
29.00
27.81
25.26
21.63
17.10
11.85
6.05
-0.05
-6.14
-11.92
-17.24
-22.11
-26.76
-31.55
-36.84
-42.75
-48.88
-54.12
-56.71
-54.70
-46.64
-32.24
-12.72
9.48
31.37
50.31
64.65
73.92
78.50
79.26
77.17
73.19
68.37
63.85
60.75
59.69
60.54
62.34
63.61
63.04
60.01
54.83
48.39
41.59
34.82
27.83
20.07
11.20
1.41
-8.58
-17.99
-26.39
-33.86
-40.95
-48.38
-56.76
-66.49
-77.56
-89.46
-101.00
-110.30
-115.17
-113.66
-104.87
-89.32
-68.93
-46.47
-24.84
-6.32
7.63
16.48
20.33
19.83
16.00
10.17
3.82
-1.57
-4.80
-5.20
-2.75
1.91
7.71
13.40
17.92
20.56
21.12
19.81
17.09
13.49
9.50
5.49
1.65
-1.97
-5.46
-9.03
-13.00
-17.72
-23.49
-30.34
-37.80
-44.72
-49.39
-49.85
-44.60
-33.18
-16.54
3.14
23.07
40.60
53.88
62.08
65.19
63.73
58.45
50.22
40.11
29.40
19.42
11.38
6.10
3.83
4.24
6.55
9.72
12.67
14.46
14.53
12.74
9.41
5.15
0.60
-3.78
-7.86
-11.77
-15.84
-20.39
-25.66
-31.71
-38.30
-44.76
-49.83
-51.82
-48.94
-39.99
-24.94
-5.21
16.65
37.66
55.27
67.97
75.33
77.70
75.78
70.20
61.60
50.80
38.97
27.58
18.11
11.65
8.50
8.15
9.51
11.25
12.28
11.95
10.17
7.17
3.38
-0.85
-5.27
-9.81
-14.48
-19.42
-24.76
-30.74
-37.55
-45.17
-53.17
-60.50
-65.60
-66.67
-62.27
-51.89
-36.26
-17.31
2.38
20.27
34.36
43.54
47.51
46.57
41.39
32.95
22.50
11.56
1.73
-5.62
-9.64
-10.26
-8.15
-4.55
-0.85
1.80
2.74
1.90
-0.31
-3.27
-6.53
-9.95
-13.75
-18.33
-24.10
-31.25
-39.67
-48.87
-57.96
-65.63
-70.32
-70.46
-64.96
-53.58
-37.25
-17.88
1.96
19.76
33.54
42.17
45.34
43.40
37.14
27.67
16.39
4.83
-5.49
-13.33
-18.03
-19.68
-19.08
-17.44
-16.07
-15.88
-17.18
-19.56
-22.09
-23.62
-23.20
-20.40
-15.45
-9.28
-3.18
1.52
3.87
3.69
1.77
-0.25
-0.35
3.29
11.59
24.23
39.76
56.03
70.78
82.09
88.49
89.08
83.50
72.13
56.19
37.76
19.31
3.11
-9.44
-18.06
-23.50
-27.00
-29.77
-32.62
-35.89
-39.52
-43.26
-46.81
-49.96
-52.65
-54.96
-57.13
-59.53
-62.54
-66.55
-71.75
-77.93
-84.15
-88.81
-89.78
-85.15
-73.84
-56.23
-34.16
-10.48
11.83
30.42
43.97
52.18
55.45
54.49
50.16
43.42
35.35
27.25
20.38
15.74
13.80
14.32
16.46
18.99
20.69
20.72
18.81
15.22
10.60
5.62
0.73
-4.00
-8.77
-13.93
-19.79
-26.52
-34.12
-42.38
-50.80
-58.41
-63.74
-64.98
-60.51
-49.48
-32.33
-10.91
12.04
33.56
51.29
63.85
70.94
72.95
70.68
65.13
57.42
48.85
40.80
34.50
30.77
29.73
30.88
33.26
35.82
37.72
38.49
37.98
36.21
33.23
29.04
23.73
17.57
11.07
4.85
-0.50
-4.77
-8.15
-11.23
-14.78
-19.48
-25.73
-33.50
-42.15
-50.43
-56.59
-58.65
-55.02
-45.04
-29.42
-10.11
10.18
28.79
43.76
54.07
59.55
60.48
57.38
50.90
42.00
32.03
22.69
15.60
11.87
11.75
14.59
19.07
23.64
27.05
28.55
28.06
25.96
22.82
19.12
15.05
10.55
5.44
-0.41
-6.83
-13.40
-19.57
-24.87
-29.12
-32.50
-35.44
-38.48
-42.07
-46.51
-51.92
-58.07
-64.25
-69.20
-71.17
-68.35
-59.49
-44.49
-24.64
-2.37
19.41
38.08
51.85
59.98
62.53
60.13
53.80
44.80
34.72
25.25
17.96
13.89
13.26
15.42
19.09
22.78
25.25
25.92
24.85
22.57
19.70
16.65
13.40
9.65
5.02
-0.56
-6.80
-13.07
-18.68
-23.20
-26.63
-29.42
-32.25
-35.79
-40.50
-46.41
-53.05
-59.39
-63.92
-64.90
-60.83
-50.95
-35.68
-16.58
3.95
23.37
39.62
51.44
58.43
60.75
58.87
53.51
45.68
36.71
28.17
21.51
17.73
17.01
18.74
21.78
24.90
27.14
28.02
27.51
25.81
23.20
19.85
15.81
11.11
5.87
0.32
-5.12
-10.05
-14.19
-17.48
-20.17
-22.69
-25.55
-29.15
-33.62
-38.68
-43.53
-46.88
-47.08
-42.53
-32.06
-15.40
6.63
32.16
58.65
83.42
104.13
119.00
126.94
127.55
121.14
108.81
92.43
74.42
57.26
42.96
32.53
25.81
21.76
19.00
16.32
13.06
9.04
4.32
-1.01
-7.02
-13.79
-21.30
-29.29
-37.26
-44.68
-51.15
-56.57
-61.13
-65.20
-69.24
-73.66
-78.71
-84.37
-90.15
-95.02
-97.52
-96.05
-89.43
-77.35
-60.59
-40.94
-20.66
-2.00
13.33
24.24
30.32
31.65
28.75
22.57
14.47
6.09
-0.95
-5.48
-7.05
-6.07
-3.52
-0.58
1.84
3.31
3.85
3.66
2.86
1.34
-1.16
-4.86
-9.71
-15.37
-21.28
-26.89
-31.84
-36.11
-39.94
-43.81
-48.24
-53.73
-60.48
-68.15
-75.74
-81.60
-83.76
-80.52
-71.12
-56.12
-37.36
-17.58
0.35
14.13
22.57
25.68
24.42
20.31
14.90
9.52
5.15
2.51
2.15
4.49
9.64
17.22
26.36
35.77
44.16
50.59
54.71
56.75
57.17
56.47
54.88
52.43
49.10
44.98
40.30
35.36
30.34
25.19
19.74
13.87
7.84
2.44
-1.09
-1.37
2.58
10.95
22.93
36.85
50.67
62.45
70.79
74.96
74.79
70.46
62.44
51.45
38.51
24.96
12.28
1.82
-5.58
-9.68
-10.86
-9.97
-8.02
-6.01
-4.79
-4.91
-6.58
-9.58
-13.40
-17.36
-20.88
-23.75
-26.11
-28.41
-31.16
-34.77
-39.38
-44.80
-50.41
-55.13
-57.51
-55.99
-49.43
-37.55
-21.26
-2.58
15.91
31.75
43.23
49.69
51.38
49.10
43.87
36.71
28.56
20.36
12.98
7.18
3.40
1.65
1.51
2.18
2.77
2.52
1.04
-1.73
-5.47
-9.78
-14.26
-18.60
-22.60
-26.09
-28.96
-31.25
-33.23
-35.42
-38.38
-42.34
-46.84
-50.60
-51.80
-48.68
-40.31
-27.02
-10.49
6.78
22.15
33.58
39.98
41.24
37.95
30.99
21.37
10.15
-1.49
-12.24
-20.86
-26.37
-28.35
-27.13
-23.63
-19.09
-14.76
-11.55
-9.88
-9.75
-10.80
-12.55
-14.57
-16.53
-18.33
-20.00
-21.75
-23.88
-26.82
-30.98
-36.54
-43.21
-49.98
-55.11
-56.55
-52.56
-42.42
-26.86
-7.96
11.49
28.72
41.77
49.66
52.37
50.50
44.95
36.75
27.10
17.29
8.66
2.34
-1.05
-1.54
0.19
2.99
5.71
7.40
7.60
6.29
3.78
0.48
-3.25
-7.24
-11.44
-15.93
-20.89
-26.50
-32.95
-40.28
-48.22
-56.04
-62.42
-65.70
-64.20
-56.81
-43.44
-25.24
-4.41
16.39
34.61
48.39
56.77
59.66
57.56
51.44
42.56
32.39
22.50
14.26
8.53
5.45
4.48
4.65
4.98
4.81
3.90
2.34
0.34
-1.94
-4.46
-7.23
-10.19
-13.26
-16.40
-19.62
-23.09
-27.02
-31.63
-36.89
-42.41
-47.32
-50.23
-49.58
-43.97
-32.77
-16.45
3.36
24.26
43.62
59.31
70.01
75.28
75.45
71.31
64.00
54.92
45.61
37.49
31.59
28.23
27.11
27.49
28.59
29.85
30.98
31.71
31.69
30.44
27.49
22.66
16.08
8.20
-0.45
-9.35
-18.13
-26.48
-34.27
-41.50
-48.48
-55.56
-62.88
-69.91
-75.25
-76.93
-73.09
-62.86
-46.83
-27.00
-6.17
12.92
28.29
38.96
44.79
46.20
43.88
38.70
31.77
24.40
17.95
13.54
11.72
12.40
14.87
18.13
21.19
23.34
24.19
23.63
21.76
18.76
14.86
10.31
5.38
0.31
-4.71
-9.59
-14.30
-18.98
-23.85
-29.25
-35.40
-42.16
-48.74
-53.66
-54.97
-50.89
-40.61
-24.76
-5.39
14.60
32.43
46.23
55.32
60.04
61.13
59.25
54.90
48.56
41.08
33.71
27.89
24.72
24.57
26.92
30.63
34.36
37.01
37.97
37.12
34.63
30.81
26.06
20.77
15.37
10.25
5.58
1.22
-3.44
-9.26
-17.09
-27.33
-39.53
-52.30
-63.48
-70.66
-71.79
-65.68
-52.33
-33.00
-10.05
13.49
34.35
49.76
57.96
58.52
52.38
41.45
28.11
14.60
2.67
-6.54
-12.52
-15.29
-15.29
-13.29
-10.20
-6.95
-4.31
-2.78
-2.61
-3.80
-6.18
-9.46
-13.27
-17.26
-21.16
-24.86
-28.44
-32.09
-36.06
-40.56
-45.73
-51.44
-57.26
-62.27
-65.09
-64.16
-58.16
-46.59
-30.07
-10.34
10.19
29.11
44.54
55.46
61.62
63.29
61.06
55.67
48.13
39.71
31.84
25.83
22.51
22.01
23.71
26.53
29.31
31.16
31.66
30.80
28.81
25.93
22.30
17.99
13.09
7.88
2.72
-1.98
-5.98
-9.35
-12.41
-15.67
-19.62
-24.51
-30.25
-36.30
-41.66
-44.88
-44.38
-38.83
-27.65
-11.31
8.59
29.73
49.70
66.57
79.22
87.30
90.97
90.56
86.55
79.58
70.62
60.92
51.78
44.31
39.08
36.15
35.14
35.49
36.57
37.85
38.81
38.98
37.94
35.42
31.33
25.85
19.34
12.28
5.12
-1.87
-8.60
-15.23
-22.12
-29.68
-38.20
-47.60
-57.21
-65.75
-71.51
-72.79
-68.46
-58.44
-43.81
-26.68
-9.58
5.20
16.04
22.19
23.63
20.77
14.39
5.60
-4.11
-13.01
-19.53
-22.69
-22.47
-19.88
-16.51
-13.96
-13.32
-14.92
-18.51
-23.51
-29.34
-35.49
-41.52
-46.98
-51.45
-54.70
-56.77
-58.10
-59.41
-61.44
-64.68
-69.04
-73.61
-76.83
-76.82
-71.99
-61.61
-46.18
-27.35
-7.51
10.89
25.92
36.50
42.35
43.84
41.58
36.35
29.10
20.91
13.05
6.71
2.81
1.68
3.04
6.05
9.62
12.63
14.28
14.19
12.40
9.33
5.52
1.48
-2.51
-6.43
-10.52
-15.07
-20.36
-26.53
-33.57
-41.17
-48.69
-55.03
-58.70
-58.15
-52.27
-40.88
-24.96
-6.51
11.96
28.12
40.35
47.84
50.56
48.98
43.87
36.20
27.18
18.13
10.37
4.91
2.24
2.24
4.25
7.28
10.32
12.55
13.51
13.06
11.40
8.85
5.75
2.32
-1.40
-5.47
-10.01
-15.13
-20.85
-27.13
-33.75
-40.17
-45.41
-48.13
-46.89
-40.71
-29.50
-14.31
2.86
19.65
33.97
44.45
50.54
52.32
50.23
44.93
37.25
28.23
19.10
11.13
5.29
2.05
1.29
2.38
4.36
6.29
7.41
7.29
5.86
3.31
-0.07
-4.00
-8.30
-12.91
-17.90
-23.36
-29.35
-35.87
-42.74
-49.42
-54.99
-58.13
-57.46
-51.92
-41.23
-26.18
-8.51
9.56
25.83
38.64
47.06
50.80
50.08
45.49
37.94
28.68
19.21
11.06
5.40
2.74
2.82
4.74
7.31
9.45
10.47
10.12
8.58
6.19
3.36
0.38
-2.64
-5.76
-9.17
-13.14
-17.94
-23.67
-30.11
-36.62
-42.00
-44.76
-43.41
-37.03
-25.69
-10.57
6.25
22.37
35.75
45.05
49.81
50.18
46.69
40.09
31.34
21.66
12.48
5.15
0.65
-0.72
0.57
3.46
6.67
9.09
10.02
9.35
7.45
4.91
2.31
-0.02
-2.15
-4.44
-7.33
-11.16
-16.06
-21.84
-27.97
-33.53
-37.18
-37.33
-32.52
-21.87
-5.55
15.03
37.57
59.43
78.36
92.89
102.53
107.49
108.46
106.35
102.26
97.44
93.28
91.04
91.54
95.02
100.97
108.38
116.08
123.13
129.24
134.71
140.34
146.98
155.00
163.87
172.04
177.02
175.96
166.31
146.54
116.58
78.04
34.10
-10.95
-52.30
-85.53
-107.48
-117.01
-115.32
-105.61
-92.10
-78.95
-69.24
-64.50
-64.76
-69.06
-76.01
-84.13
-92.13
-98.88
-103.49
-105.41
-104.50
-101.09
-95.91
-89.91
-84.02
-78.95
-75.06
-72.33
-70.51
-69.20
-68.08
-66.89
-65.52
-63.92
-62.17
-60.39
-58.83
-57.84
-57.85
-59.18
-61.81
-65.07
-67.58
-67.43
-62.80
-52.62
-37.10
-17.81
2.78
21.94
37.45
47.95
52.97
52.78
48.15
40.29
30.68
21.01
12.87
7.49
5.45
6.62
10.22
15.12
20.09
24.11
26.59
27.39
26.75
25.13
22.92
20.29
17.09
12.85
7.00
-0.98
-11.29
-23.74
-37.68
-52.18
-66.06
-78.13
-87.20
-92.15
-91.98
-86.06
-74.40
-57.91
-38.36
-18.17
0.16
14.58
23.86
27.72
26.64
21.60
13.88
4.90
-3.90
-11.23
-16.14
-18.25
-17.79
-15.47
-12.32
-9.29
-7.19
-6.48
-7.41
-10.01
-14.05
-19.11
-24.65
-30.06
-34.93
-39.13
-42.84
-46.48
-50.57
-55.55
-61.57
-68.27
-74.61
-78.89
-79.05
-73.33
-60.94
-42.52
-20.13
3.38
25.16
43.02
55.84
63.36
65.90
64.10
58.88
51.49
43.50
36.61
32.19
30.94
32.75
36.84
42.09
47.44
52.12
55.73
58.12
59.40
59.79
59.66
59.37
59.25
59.50
60.16
61.10
62.07
62.67
62.32
60.33
56.17
49.84
42.16
34.79
29.75
28.66
32.07
39.09
47.74
55.60
60.64
61.69
58.51
51.49
41.34
28.84
14.88
0.62
-12.52
-23.04
-29.66
-31.86
-30.11
-25.92
-21.35
-18.40
-18.31
-21.21
-26.23
-32.05
-37.51
-42.06
-45.77
-49.04
-52.22
-55.36
-58.36
-61.19
-64.19
-68.01
-73.20
-79.61
-86.04
-90.27
-89.75
-82.54
-68.17
-47.97
-24.79
-1.97
17.53
31.90
40.53
43.69
42.10
36.52
27.80
16.97
5.34
-5.56
-14.28
-19.83
-21.88
-20.92
-18.00
-14.46
-11.55
-10.18
-10.82
-13.49
-17.86
-23.47
-29.83
-36.53
-43.27
-49.91
-56.46
-63.07
-70.06
-77.79
-86.50
-96.03
-105.52
-113.32
-117.22
-115.14
-105.83
-89.59
-68.37
-45.29
-23.72
-6.38
5.37
11.47
12.76
10.44
5.64
-0.63
-7.37
-13.51
-17.88
-19.58
-18.21
-14.05
-8.03
-1.41
4.59
9.04
11.49
11.86
10.40
7.46
3.50
-1.08
-5.96
-10.88
-15.77
-20.66
-25.78
-31.48
-38.13
-45.83
-54.04
-61.42
-65.81
-64.87
-56.80
-41.21
-19.39
5.88
31.09
52.98
69.17
78.55
81.04
77.34
68.53
55.93
40.98
25.19
9.97
-3.42
-14.01
-21.19
-24.75
-25.00
-22.75
-19.34
-16.33
-15.19
-16.89
-21.62
-28.81
-37.33
-45.93
-53.54
-59.51
-63.61
-65.97
-67.02
-67.42
-67.82
-68.61
-69.44
-69.08
-65.53
-56.74
-41.44
-19.91
5.91
32.95
57.96
78.41
92.89
100.99
102.95
99.37
91.17
79.81
67.34
56.08
47.99
44.11
44.18
46.80
50.06
52.15
51.93
49.16
44.52
39.42
35.64
34.74
37.40
42.87
48.93
52.33
49.68
38.53
18.28
-9.44
-40.84
-70.56
-92.74
-102.14
-95.53
-72.52
-35.88
9.02
55.47
96.80
127.84
145.54
149.19
140.12
121.22
96.31
69.57
44.90
25.36
12.71
7.20
7.68
12.02
17.64
22.17
24.02
22.71
18.82
13.64
8.58
4.53
1.60
-0.88
-4.00
-8.84
-16.04
-25.69
-37.17
-49.21
-59.89
-66.90
-67.99
-61.59
-47.36
-26.51
-1.56
24.27
47.85
66.78
79.73
86.33
86.99
82.59
74.37
63.79
52.48
42.05
33.86
28.75
26.87
27.61
29.78
31.93
32.77
31.57
28.26
23.35
17.55
11.49
5.40
-0.78
-7.33
-14.45
-22.26
-30.78
-40.00
-49.82
-59.79
-68.81
-75.06
-76.33
-70.71
-57.42
-37.31
-12.79
12.80
36.10
54.54
66.69
72.27
71.79
66.21
56.78
44.97
32.41
20.78
11.54
5.66
3.35
4.12
6.94
10.53
13.77
15.86
16.40
15.32
12.73
8.81
3.85
-1.88
-8.02
-14.25
-20.37
-26.42
-32.73
-39.84
-48.25
-58.02
-68.43
-77.73
-83.49
-83.19
-75.18
-59.40
-37.68
-13.26
10.21
29.74
43.73
51.99
55.29
54.68
51.03
45.05
37.58
29.88
23.58
20.27
20.84
25.06
31.63
38.70
44.65
48.65
50.78
51.72
52.22
52.73
53.27
53.63
53.58
53.01
51.82
49.81
46.54
41.50
34.37
25.45
15.88
7.51
2.44
2.26
7.37
16.80
28.42
39.68
48.44
53.47
54.55
52.12
46.75
38.87
28.85
17.37
5.66
-4.55
-11.51
-14.18
-12.77
-8.84
-4.81
-3.12
-5.47
-12.21
-22.49
-34.62
-46.81
-57.60
-66.30
-72.93
-78.03
-82.51
-87.35
-93.34
-100.84
-109.47
-117.94
-124.19
-125.79
-120.70
-108.08
-88.62
-64.56
-39.06
-15.32
4.08
17.62
24.87
26.21
22.58
15.36
6.14
-3.33
-11.37
-16.69
-18.61
-17.22
-13.40
-8.45
-3.84
-0.73
0.23
-0.94
-3.81
-7.69
-12.04
-16.59
-21.40
-26.70
-32.77
-39.78
-47.71
-56.27
-64.74
-71.92
-76.14
-75.54
-68.61
-54.81
-34.92
-11.04
13.94
37.01
55.87
69.17
76.58
78.52
75.87
69.77
61.56
52.80
45.08
39.77
37.73
39.04
43.03
48.49
54.07
58.62
61.52
62.63
62.22
60.77
58.77
56.64
54.64
52.89
51.38
49.98
48.53
46.82
44.69
42.19
39.73
38.32
39.44
44.71
55.24
71.02
90.66
111.63
130.90
145.75
154.36
155.93
150.56
138.95
122.29
102.26
80.93
60.46
42.70
28.72
18.65
11.82
7.22
3.83
0.86
-2.29
-6.19
-11.40
-18.36
-27.12
-37.19
-47.57
-57.07
-64.62
-69.59
-71.97
-72.36
-71.84
-71.74
-73.47
-78.06
-85.83
-96.02
-106.69
-115.13
-118.53
-114.92
-103.91
-86.81
-66.23
-45.23
-26.54
-12.02
-2.57
1.68
1.16
-3.36
-10.65
-19.22
-27.37
-33.60
-36.94
-37.16
-34.76
-30.78
-26.43
-22.76
-20.40
-19.57
-20.12
-21.77
-24.28
-27.46
-31.14
-35.03
-38.66
-41.58
-43.47
-44.46
-45.17
-46.52
-49.34
-53.96
-59.96
-66.05
-70.30
-70.60
-65.27
-53.60
-36.21
-15.01
7.25
27.68
43.94
54.66
59.49
58.88
53.81
45.48
35.19
24.39
14.46
6.68
1.93
0.53
2.16
5.91
10.54
14.69
17.24
17.47
15.20
10.80
4.97
-1.41
-7.55
-12.94
-17.43
-21.13
-24.43
-27.85
-31.90
-36.91
-42.75
-48.60
-52.91
-53.71
-49.16
-38.34
-21.77
-1.33
20.13
39.67
55.00
64.92
69.22
68.38
63.24
54.85
44.46
33.57
23.82
16.62
12.85
12.55
14.91
18.56
21.93
23.70
23.01
19.62
13.83
6.35
-1.85
-9.91
-17.20
-23.57
-29.28
-34.88
-40.96
-47.97
-56.04
-64.82
-73.38
-80.19
-83.31
-80.86
-71.71
-56.02
-35.49
-12.94
8.54
26.42
39.40
47.32
50.73
50.24
46.24
38.91
28.64
16.37
3.58
-8.00
-16.97
-22.61
-25.01
-24.90
-23.20
-20.80
-18.33
-16.26
-15.01
-14.93
-16.31
-19.25
-23.64
-29.10
-35.18
-41.47
-47.79
-54.25
-61.15
-68.61
-76.21
-82.73
-86.20
-84.47
-75.98
-60.46
-39.20
-14.81
9.61
31.20
48.08
59.32
64.90
65.31
61.42
54.37
45.61
36.74
29.29
24.37
22.47
23.36
26.28
30.20
34.12
37.26
39.08
39.31
37.86
34.78
30.25
24.53
17.97
10.95
3.88
-2.97
-9.51
-15.91
-22.55
-29.70
-37.23
-44.25
-48.99
-49.23
-42.93
-29.16
-8.64
16.22
41.88
64.68
81.82
91.88
94.81
91.53
83.39
71.85
58.37
44.51
31.94
22.17
16.18
14.10
15.10
17.71
20.28
21.52
20.79
18.11
13.97
8.95
3.54
-2.04
-7.79
-13.81
-20.25
-27.23
-34.88
-43.34
-52.76
-63.05
-73.60
-83.11
-89.55
-90.70
-84.82
-71.44
-51.68
-28.03
-3.75
18.09
35.25
46.60
52.03
52.13
47.93
40.71
31.92
23.08
15.58
10.44
8.11
8.38
10.49
13.31
15.68
16.71
15.97
13.54
9.90
5.56
0.90
-3.97
-9.13
-14.65
-20.47
-26.43
-32.36
-38.16
-43.71
-48.65
-52.13
-52.81
-49.24
-40.46
-26.52
-8.62
11.16
30.46
47.24
60.10
68.27
71.44
69.63
63.24
53.17
40.98
28.71
18.60
12.48
11.36
15.21
22.95
32.79
42.56
50.24
54.24
53.70
48.62
39.78
28.55
16.44
4.71
-6.00
-15.72
-25.03
-34.57
-44.56
-54.33
-62.20
-65.83
-62.91
-52.06
-33.42
-8.80
18.82
46.06
69.98
88.51
100.53
105.55
103.49
94.64
79.84
60.68
39.45
18.85
1.46
-10.61
-16.07
-14.50
-6.43
6.60
22.03
36.65
47.20
51.18
47.54
36.85
20.92
2.07
-17.57
-36.54
-54.09
-70.02
-84.32
-96.86
-107.13
-114.09
-116.31
-112.36
-101.42
-83.81
-61.19
-36.24
-11.92
9.25
25.62
36.45
41.59
41.29
36.15
27.30
16.46
5.77
-2.71
-7.62
-8.65
-6.61
-3.07
0.18
1.76
0.94
-2.19
-7.00
-12.63
-18.32
-23.70
-28.79
-33.84
-39.13
-44.82
-50.93
-57.35
-63.84
-69.87
-74.46
-76.12
-73.15
-64.13
-48.52
-27.03
-1.52
25.45
51.23
73.62
91.13
102.96
108.90
109.21
104.64
96.35
85.94
75.23
65.89
59.04
54.97
53.05
51.99
50.39
47.36
42.82
37.49
32.40
28.32
25.34
22.95
20.29
16.75
12.10
6.62
0.84
-4.57
-8.86
-11.10
-10.29
-5.70
2.82
14.50
27.84
41.09
52.87
62.45
69.62
74.16
75.47
72.48
64.12
50.03
31.13
9.59
-11.67
-29.92
-43.39
-51.62
-55.34
-55.86
-54.52
-52.27
-49.72
-47.29
-45.47
-44.86
-46.01
-49.11
-53.92
-59.81
-66.12
-72.44
-78.70
-84.90
-90.66
-94.90
-95.85
-91.60
-80.87
-63.78
-42.02
-18.43
3.86
22.33
35.64
43.59
46.70
45.78
41.62
35.07
27.15
19.15
12.39
7.95
6.31
7.23
9.92
13.40
16.76
19.35
20.86
21.19
20.44
18.85
16.75
14.42
11.93
9.01
5.12
-0.40
-8.04
-17.84
-29.27
-41.20
-52.02
-59.81
-62.71
-59.34
-49.18
-32.95
-12.50
9.64
30.92
49.47
64.28
75.06
81.75
84.19
82.17
75.82
66.08
54.80
44.34
36.75
32.95
32.33
33.10
33.05
30.52
25.03
17.22
8.35
-0.33
-8.12
-14.83
-20.59
-25.50
-29.53
-32.63
-34.97
-37.11
-39.90
-44.23
-50.70
-59.37
-69.66
-80.46
-90.18
-97.01
-99.16
-95.31
-84.95
-68.62
-47.87
-24.84
-1.77
19.54
37.84
52.43
62.85
68.72
69.81
66.30
59.13
49.99
41.10
34.54
31.63
32.49
36.16
41.01
45.45
48.45
49.74
49.68
48.81
47.54
45.93
43.76
40.73
36.67
31.74
26.37
21.21
16.96
14.16
12.98
12.92
12.70
10.42
4.03
-7.86
-25.15
-45.92
-66.65
-83.22
-92.20
-91.92
-82.88
-67.39
-48.56
-29.30
-11.70
3.06
14.34
21.67
24.72
23.47
18.56
11.38
3.89
-2.00
-4.90
-4.37
-0.82
4.77
11.22
17.56
23.08
27.44
30.52
32.35
32.97
32.38
30.49
27.18
22.42
16.39
9.55
2.52
-4.13
-10.01
-15.16
-19.92
-24.87
-30.54
-37.34
-45.37
-54.43
-63.84
-72.35
-78.30
-79.86
-75.70
-65.51
-50.35
-32.36
-14.08
2.36
15.73
25.76
32.65
36.57
37.48
35.32
30.41
23.74
16.88
11.46
8.53
8.18
9.58
11.41
12.45
12.02
10.14
7.30
4.18
1.33
-1.04
-3.01
-4.86
-6.84
-9.03
-11.27
-13.30
-14.89
-16.02
-17.03
-18.46
-20.93
-24.92
-30.58
-37.70
-45.60
-53.18
-58.97
-61.27
-58.65
-50.30
-36.47
-18.51
1.41
20.88
37.79
50.72
58.97
62.36
61.15
55.93
47.75
38.08
28.70
21.29
16.95
15.90
17.43
20.22
22.86
24.31
24.17
22.62
20.13
17.18
13.97
10.45
6.43
1.87
-3.08
-8.04
-12.63
-16.63
-20.11
-23.43
-27.09
-31.57
-37.13
-43.64
-50.41
-56.14
-59.06
-57.36
-49.77
-36.19
-17.91
2.64
22.59
39.43
51.58
58.56
60.72
58.81
53.72
46.42
37.96
29.51
22.23
16.91
13.84
12.69
12.77
13.35
13.92
14.31
14.56
14.74
14.74
14.30
13.18
11.29
8.80
6.04
3.34
0.75
-1.97
-5.29
-9.73
-15.64
-22.99
-31.18
-38.98
-44.66
-46.31
-42.39
-32.18
-16.27
3.53
24.54
43.93
59.48
70.03
75.58
76.91
75.10
71.12
65.56
58.68
50.66
41.77
32.47
23.28
14.62
6.57
-1.07
-8.71
-16.68
-25.05
-33.53
-41.64
-48.88
-54.93
-59.67
-63.16
-65.55
-67.00
-67.82
-68.45
-69.56
-71.78
-75.33
-79.68
-83.35
-84.19
-80.08
-69.70
-53.18
-32.20
-9.46
12.11
30.18
43.41
51.48
54.67
53.55
48.79
41.28
32.21
23.07
15.44
10.57
9.00
10.36
13.53
17.01
19.37
19.72
17.80
13.93
8.75
2.86
-3.36
-9.82
-16.59
-23.83
-31.64
-40.06
-49.01
-58.22
-67.04
-74.28
-78.28
-77.35
-70.36
-57.32
-39.62
-19.72
-0.42
15.93
27.89
35.02
37.49
35.76
30.37
22.03
11.86
1.44
-7.43
-13.24
-15.25
-13.79
-10.10
-5.78
-2.27
-0.37
-0.18
-1.28
-3.08
-5.15
-7.36
-9.90
-13.11
-17.37
-23.00
-30.11
-38.50
-47.39
-55.37
-60.49
-60.72
-54.63
-42.02
-24.13
-3.41
17.22
35.23
48.94
57.67
61.38
60.31
54.85
45.59
33.66
20.81
9.17
0.68
-3.53
-3.58
-0.68
3.29
6.47
7.71
6.72
3.98
0.33
-3.54
-7.39
-11.44
-16.15
-21.98
-29.15
-37.59
-46.83
-55.94
-63.40
-67.29
-65.62
-56.99
-41.33
-20.18
3.55
26.49
45.71
59.53
67.48
70.00
67.81
61.59
52.03
40.14
27.40
15.67
6.70
1.68
0.74
3.05
7.04
11.05
13.78
14.61
13.59
11.25
8.20
4.81
1.09
-3.18
-8.35
-14.61
-22.01
-30.47
-39.82
-49.68
-59.20
-66.89
-70.66
-68.38
-58.65
-41.55
-18.85
6.32
30.40
50.43
64.72
72.94
75.70
73.98
68.77
61.01
51.79
42.43
34.33
28.65
25.83
25.49
26.54
27.61
27.52
25.56
21.62
16.00
9.27
2.06
-5.10
-11.84
-18.07
-23.89
-29.61
-35.58
-42.13
-49.50
-57.77
-66.71
-75.56
-82.87
-86.61
-84.63
-75.47
-59.04
-36.94
-12.08
12.17
32.91
48.36
57.99
62.14
61.65
57.47
50.66
42.50
34.48
28.15
24.66
24.40
26.83
30.56
33.91
35.45
34.40
30.82
25.40
19.01
12.41
6.01
-0.09
-5.96
-11.69
-17.33
-22.97
-28.78
-35.14
-42.44
-50.93
-60.35
-69.64
-76.96
-79.96
-76.51
-65.44
-47.13
-23.55
2.21
26.83
47.57
62.75
71.77
74.85
72.69
66.33
57.16
46.92
37.54
30.79
27.75
28.52
32.18
37.05
41.22
43.12
41.87
37.42
30.35
21.61
12.20
2.92
-5.70
-13.40
-20.11
-25.96
-31.25
-36.41
-42.02
-48.72
-56.95
-66.64
-76.91
-85.92
-91.14
-90.02
-80.88
-63.68
-40.20
-13.67
12.22
34.29
50.59
60.50
64.41
63.28
58.29
50.72
42.03
33.81
27.55
24.31
24.44
27.40
32.01
36.71
40.11
41.18
39.55
35.36
29.16
21.64
13.50
5.30
-2.59
-9.97
-16.78
-23.13
-29.28
-35.63
-42.63
-50.68
-59.74
-69.07
-77.12
-81.66
-80.42
-71.86
-55.85
-33.95
-9.05
15.40
36.36
51.89
61.35
65.09
63.99
59.05
51.29
41.81
31.99
23.30
17.05
13.95
13.85
15.80
18.42
20.42
21.02
20.06
17.78
14.59
10.82
6.67
2.26
-2.25
-6.72
-11.02
-15.20
-19.47
-24.16
-29.65
-36.23
-43.92
-52.27
-60.17
-65.87
-67.30
-62.64
-51.10
-33.42
-11.85
10.48
30.47
45.94
55.95
60.61
60.65
56.85
49.95
40.74
30.30
20.05
11.55
6.06
4.09
5.26
8.44
12.11
14.86
15.73
14.43
11.27
6.91
2.10
-2.59
-6.90
-10.84
-14.58
-18.34
-22.37
-26.93
-32.31
-38.70
-45.86
-52.81
-57.80
-58.65
-53.44
-41.39
-23.28
-1.43
20.99
40.91
56.17
65.78
69.84
69.04
64.23
56.29
46.21
35.24
24.91
16.79
12.02
10.92
12.84
16.31
19.61
21.32
20.73
17.94
13.63
8.61
3.52
-1.40
-6.21
-11.12
-16.34
-22.04
-28.44
-35.73
-44.00
-52.89
-61.26
-67.19
-68.37
-62.90
-50.11
-31.00
-8.16
15.03
35.39
50.74
60.20
63.96
62.84
57.77
49.73
39.82
29.37
19.93
12.94
9.29
9.00
11.19
14.37
16.96
17.75
16.24
12.62
7.51
1.65
-4.40
-10.38
-16.35
-22.47
-28.94
-35.85
-43.26
-51.22
-59.66
-68.26
-76.10
-81.59
-82.74
-77.75
-65.84
-47.74
-25.70
-2.86
17.73
33.91
44.73
50.30
51.24
48.27
42.16
33.82
24.55
15.95
9.56
6.42
6.64
9.50
13.65
17.70
20.56
21.68
21.01
18.80
15.44
11.32
6.76
1.99
-2.76
-7.40
-11.91
-16.45
-21.35
-27.06
-33.93
-42.02
-50.67
-58.46
-63.36
-63.26
-56.70
-43.52
-25.04
-3.77
17.34
35.69
49.58
58.26
61.77
60.57
55.38
47.18
37.31
27.45
19.31
14.22
12.68
14.23
17.64
21.39
24.27
25.71
25.88
25.43
25.07
25.17
25.62
25.77
24.74
21.75
16.31
8.40
-1.60
-13.03
-25.19
-37.41
-49.03
-59.14
-66.51
-69.59
-66.84
-57.33
-41.35
-20.58
2.18
23.76
41.47
53.74
60.25
61.58
58.78
52.89
44.95
35.98
27.13
19.66
14.62
12.52
13.19
15.75
18.94
21.50
22.46
21.42
18.41
13.92
8.57
3.00
-2.32
-7.16
-11.52
-15.62
-19.79
-24.42
-29.93
-36.68
-44.83
-54.10
-63.51
-71.31
-75.34
-73.65
-65.29
-50.83
-32.31
-12.64
5.30
19.46
28.95
33.90
34.99
32.94
28.38
21.83
13.88
5.31
-3.00
-10.18
-15.62
-19.06
-20.66
-20.89
-20.45
-20.15
-20.70
-22.57
-25.84
-30.28
-35.35
-40.46
-45.13
-49.08
-52.25
-54.74
-56.81
-58.88
-61.48
-65.02
-69.52
-74.24
-77.57
-77.38
-71.65
-59.40
-41.06
-18.58
5.26
27.65
46.42
60.35
69.02
72.51
71.20
65.80
57.45
47.72
38.41
31.13
26.84
25.55
26.53
28.52
30.30
30.98
30.18
27.98
24.72
20.81
16.59
12.23
7.75
3.16
-1.50
-6.12
-10.60
-15.00
-19.68
-25.17
-31.88
-39.54
-46.93
-51.93
-52.14
-45.81
-32.59
-13.72
8.29
30.54
50.45
66.21
76.76
81.63
80.86
75.01
65.32
53.61
42.06
32.59
26.48
24.06
24.84
27.77
31.61
35.15
37.46
37.87
36.13
32.31
26.80
20.15
12.89
5.42
-2.03
-9.42
-16.82
-24.39
-32.36
-40.95
-50.12
-59.37
-67.45
-72.49
-72.47
-66.02
-53.09
-35.18
-14.94
4.65
21.25
33.61
41.49
45.19
45.13
41.57
34.91
25.93
16.00
6.83
0.02
-3.52
-3.85
-1.87
1.04
3.50
4.57
3.87
1.52
-2.11
-6.53
-11.32
-16.13
-20.64
-24.59
-27.85
-30.55
-33.18
-36.53
-41.35
-47.86
-55.24
-61.59
-64.32
-61.09
-50.78
-34.09
-13.39
8.04
27.08
41.64
50.87
54.93
54.46
50.23
43.14
34.31
25.25
17.62
12.76
11.27
12.77
16.04
19.50
21.85
22.44
21.38
19.37
17.27
15.62
14.41
12.97
10.23
5.14
-2.83
-13.51
-26.01
-39.11
-51.59
-62.40
-70.62
-75.24
-75.17
-69.47
-57.89
-41.24
-21.44
-1.12
17.17
31.59
41.26
46.25
47.15
44.78
40.04
33.89
27.34
21.43
17.00
14.58
14.18
15.32
17.21
18.90
19.61
18.88
16.72
13.58
10.12
7.02
4.71
3.32
2.66
2.37
2.01
1.18
-0.52
-3.34
-7.29
-11.86
-15.95
-17.94
-16.13
-9.46
1.98
16.64
31.84
44.47
51.90
52.66
46.64
34.90
19.19
1.49
-16.41
-33.04
-47.40
-58.97
-67.88
-74.95
-81.58
-89.35
-99.47
-112.25
-126.91
-141.93
-155.70
-167.17
-176.25
-183.58
-190.02
-196.05
-201.61
-206.33
-209.88
-212.26
-213.54
-213.50
-211.13
-204.58
-191.64
-170.46
-140.33
-102.12
-58.17
-11.81
33.25
73.69
106.97
131.67
147.46
155.06
156.07
152.68
147.34
142.35
139.37
139.03
140.82
143.27
144.50
142.95
137.87
129.67
119.54
109.06
99.44
91.14
83.76
76.20
67.19
55.81
41.98
26.71
12.05
0.53
-5.43
-4.28
4.19
18.78
37.20
56.62
74.30
88.07
96.53
99.10
96.05
88.31
77.41
65.21
53.60
44.12
37.63
34.26
33.43
34.12
35.20
35.74
35.12
33.05
29.49
24.53
18.36
11.20
3.38
-4.67
-12.43
-19.43
-25.43
-30.53
-35.25
-40.35
-46.42
-53.40
-60.17
-64.61
-64.13
-56.42
-40.41
-16.77
12.12
42.62
70.71
92.83
106.51
110.66
105.70
93.36
76.38
57.94
40.98
27.57
18.47
13.16
10.27
8.21
5.73
2.28
-2.13
-7.19
-12.59
-18.26
-24.23
-30.48
-36.75
-42.58
-47.39
-50.72
-52.44
-52.83
-52.49
-52.26
-52.98
-55.28
-59.46
-65.28
-71.84
-77.58
-80.47
-78.47
-70.09
-54.99
-34.27
-10.26
13.94
35.31
51.49
61.19
64.21
61.26
53.64
43.05
31.35
20.32
11.44
5.64
3.15
3.54
5.84
8.82
11.33
12.49
11.85
9.42
5.56
0.89
-4.00
-8.62
-12.79
-16.64
-20.52
-24.93
-30.29
-36.79
-44.23
-51.87
-58.42
-62.21
-61.53
-55.16
-42.80
-25.26
-4.36
17.54
38.02
55.13
67.56
74.69
76.44
73.29
66.21
56.70
46.68
38.13
32.62
30.92
32.78
37.01
41.99
46.17
48.50
48.69
47.05
44.18
40.71
36.95
32.89
28.25
22.57
15.43
6.57
-3.86
-15.18
-26.07
-34.76
-39.42
-38.74
-32.41
-21.28
-7.17
7.73
21.45
32.64
40.54
44.75
45.01
41.16
33.44
22.79
10.91
-0.02
-7.98
-11.78
-11.38
-7.84
-2.82
2.11
5.90
8.21
9.25
9.42
9.06
8.29
7.02
5.08
2.31
-1.36
-5.85
-10.75
-15.27
-18.15
-17.92
-13.30
-3.77
10.18
27.08
44.97
61.87
76.24
87.03
93.60
95.64
93.19
86.87
77.94
68.01
58.68
51.03
45.40
41.49
38.68
36.32
33.85
30.74
26.49
20.69
13.20
4.38
-5.08
-14.39
-23.08
-31.21
-39.30
-47.97
-57.47
-67.31
-76.23
-82.47
-84.27
-80.55
-71.32
-57.74
-41.79
-25.70
-11.37
-0.06
7.62
11.56
12.04
9.73
5.73
1.44
-1.82
-3.28
-3.17
-2.66
-3.41
-6.85
-13.64
-23.34
-34.71
-46.16
-56.26
-64.09
-69.38
-72.39
-73.83
-74.67
-75.89
-78.24
-81.89
-86.20
-89.69
-90.29
-86.05
-75.78
-59.68
-39.33
-17.25
3.83
21.77
35.32
44.02
47.97
47.54
43.35
36.45
28.31
20.68
15.12
12.56
13.02
15.64
19.08
22.00
23.47
23.14
21.13
17.86
13.72
8.97
3.60
-2.54
-9.65
-17.80
-26.88
-36.50
-45.90
-53.95
-59.24
-60.39
-56.45
-47.29
-33.72
-17.38
-0.25
15.88
29.68
40.34
47.35
50.38
49.24
44.12
35.82
25.84
16.02
8.01
2.66
-0.20
-1.58
-2.83
-4.93
-8.21
-12.19
-15.98
-18.65
-19.57
-18.61
-16.18
-13.15
-10.75
-10.40
-13.43
-20.63
-31.72
-44.99
-57.49
-65.66
-66.42
-58.20
-41.52
-18.74
6.68
31.29
52.54
68.99
80.09
85.73
85.79
80.25
69.53
54.84
38.30
22.54
9.97
2.13
-0.83
-0.08
2.47
4.82
5.60
4.30
1.18
-3.10
-7.93
-12.99
-18.27
-23.94
-30.10
-36.70
-43.62
-50.68
-57.81
-64.82
-71.18
-75.84
-77.25
-73.78
-64.39
-49.19
-29.63
-8.20
12.36
29.79
42.84
51.24
55.30
55.56
52.52
46.74
39.04
30.55
22.59
16.34
12.51
11.24
12.07
14.16
16.48
17.97
17.74
15.26
10.52
4.15
-2.81
-9.19
-14.19
-17.58
-19.78
-21.52
-23.64
-26.74
-31.01
-36.18
-41.44
-45.44
-46.47
-42.90
-33.76
-19.29
-1.14
18.07
35.63
49.58
59.26
65.09
67.93
68.43
66.60
62.10
54.71
44.87
33.74
22.90
13.82
7.42
4.01
3.42
5.19
8.71
13.13
17.30
19.84
19.51
15.53
8.00
-2.16
-13.47
-24.42
-33.94
-41.73
-48.21
-54.27
-60.86
-68.53
-77.19
-85.87
-92.93
-96.39
-94.56
-86.64
-73.09
-55.58
-36.54
-18.45
-3.26
7.88
14.52
16.65
14.51
8.59
-0.22
-10.50
-20.45
-28.31
-32.84
-33.74
-31.70
-28.05
-24.26
-21.45
-20.12
-20.25
-21.49
-23.51
-26.13
-29.31
-33.00
-36.98
-40.91
-44.38
-47.17
-49.35
-51.25
-53.28
-55.72
-58.60
-61.66
-64.34
-65.94
-65.60
-62.40
-55.54
-44.59
-29.72
-11.81
7.68
26.99
44.55
59.23
70.43
78.07
82.40
83.93
83.37
81.55
79.40
77.72
77.10
77.76
79.57
82.14
84.94
87.41
89.00
89.19
87.51
83.59
77.25
68.67
58.35
47.16
36.09
26.01
17.40
10.26
4.08
-1.92
-8.44
-15.81
-23.63
-30.81
-35.72
-36.65
-32.38
-22.71
-8.55
8.20
25.26
40.52
52.47
60.34
63.94
63.48
59.40
52.43
43.57
34.11
25.41
18.60
14.34
12.63
12.88
14.14
15.46
16.07
15.57
13.87
11.01
7.07
2.08
-3.81
-10.39
-17.22
-23.88
-30.05
-35.71
-41.11
-46.67
-52.71
-59.28
-65.95
-71.74
-75.28
-75.00
-69.63
-58.66
-42.60
-23.09
-2.45
16.85
32.75
44.06
50.55
52.83
52.09
49.81
47.31
45.50
44.65
44.43
44.22
43.47
41.98
39.89
37.46
34.74
31.51
27.43
22.31
16.25
9.50
2.22
-5.63
-14.18
-23.19
-31.87
-38.95
-43.31
-44.64
-43.78
-42.28
-41.59
-42.14
-43.06
-42.66
-39.32
-32.43
-22.71
-11.84
-1.75
6.11
10.99
12.79
11.67
7.92
1.96
-5.52
-13.45
-20.53
-25.61
-27.99
-27.65
-25.20
-21.55
-17.64
-14.15
-11.50
-9.82
-9.04
-9.01
-9.53
-10.48
-11.92
-14.20
-17.84
-23.42
-31.22
-40.92
-51.38
-60.78
-66.93
-67.87
-62.42
-50.62
-33.66
-13.62
7.15
26.56
43.09
55.87
64.51
68.96
69.50
66.75
61.77
55.98
50.84
47.60
47.02
49.31
54.22
61.19
69.39
77.78
85.11
90.09
91.64
89.16
82.76
73.14
61.41
48.70
35.90
23.47
11.42
-0.50
-12.47
-24.32
-35.26
-43.98
-49.04
-49.38
-44.77
-35.90
-24.14
-11.22
1.09
11.10
17.24
18.25
13.50
3.49
-10.09
-24.62
-37.42
-46.60
-51.58
-53.00
-52.14
-50.33
-48.46
-47.00
-46.16
-46.12
-47.09
-49.14
-52.12
-55.63
-59.19
-62.46
-65.44
-68.45
-72.00
-76.45
-81.71
-86.89
-90.37
-90.11
-84.30
-72.11
-54.08
-32.08
-8.70
13.48
32.60
47.69
58.55
65.35
68.33
67.82
64.28
58.50
51.62
44.89
39.44
35.97
34.66
35.09
36.45
37.71
37.91
36.43
33.12
28.31
22.62
16.72
11.04
5.66
0.29
-5.51
-12.20
-20.12
-29.30
-39.45
-49.75
-58.85
-64.93
-66.14
-61.09
-49.50
-32.41
-12.04
8.80
27.47
42.10
51.79
56.54
56.89
53.71
48.08
41.23
34.49
29.17
26.23
26.07
28.46
32.59
37.32
41.51
44.30
45.29
44.51
42.23
38.82
34.50
29.31
23.23
16.22
8.34
-0.26
-9.49
-19.24
-29.34
-39.20
-47.70
-53.20
-53.98
-48.90
-37.93
-22.41
-4.68
12.58
27.09
37.44
43.18
44.55
42.16
36.75
29.20
20.59
12.14
5.12
0.57
-1.00
0.24
3.46
7.45
10.89
12.71
12.37
9.90
5.83
0.95
-3.91
-8.18
-11.64
-14.43
-16.93
-19.67
-23.18
-27.94
-34.11
-41.34
-48.53
-53.88
-55.41
-51.59
-42.17
-28.41
-12.84
1.69
12.99
20.22
23.95
25.64
26.94
29.07
32.49
36.87
41.22
44.23
44.67
41.81
35.75
27.44
18.37
10.05
3.50
-0.91
-3.45
-4.67
-5.17
-5.53
-6.30
-8.06
-11.31
-16.32
-23.00
-30.92
-39.47
-48.12
-56.53
-64.52
-71.79
-77.73
-81.25
-80.99
-75.75
-65.04
-49.36
-30.29
-10.08
8.91
24.67
35.91
42.12
43.45
40.63
34.79
27.33
19.74
13.30
8.92
6.91
7.02
8.54
10.57
12.23
12.87
12.20
10.26
7.27
3.56
-0.58
-4.95
-9.44
-14.02
-18.68
-23.42
-28.27
-33.22
-38.28
-43.54
-49.05
-54.76
-60.30
-64.79
-66.83
-64.83
-57.45
-44.24
-25.99
-4.57
17.48
37.66
54.08
65.74
72.45
74.75
73.71
70.86
67.97
66.66
67.88
71.45
76.08
79.72
80.39
76.86
69.06
57.92
44.93
31.55
18.83
7.33
-2.85
-11.78
-19.57
-26.23
-31.60
-35.41
-37.40
-37.54
-36.31
-34.75
-34.16
-35.56
-39.07
-43.60
-47.08
-47.17
-42.26
-32.10
-17.93
-2.03
13.15
25.65
34.36
38.86
39.23
35.76
29.00
19.86
9.68
0.03
-7.61
-12.25
-13.67
-12.36
-9.38
-5.96
-3.21
-1.85
-2.14
-3.89
-6.64
-9.89
-13.25
-16.56
-19.86
-23.29
-26.98
-31.01
-35.37
-40.10
-45.21
-50.62
-55.96
-60.41
-62.69
-61.37
-55.34
-44.31
-29.13
-11.56
6.12
21.87
34.31
42.85
47.53
48.70
46.75
42.19
35.75
28.49
21.74
16.79
14.55
15.19
18.16
22.31
26.30
28.96
29.68
28.41
25.64
22.09
18.42
14.97
11.75
8.44
4.66
0.05
-5.66
-12.59
-20.67
-29.52
-38.21
-45.30
-48.99
-47.65
-40.38
-27.50
-10.55
8.10
25.92
40.92
52.00
58.91
62.03
61.96
59.31
54.66
48.61
41.92
35.50
30.34
27.29
26.83
28.82
32.57
36.90
40.55
42.59
42.67
41.03
38.31
35.20
32.20
29.56
27.39
25.69
24.30
22.79
20.43
16.46
10.63
3.74
-2.31
-4.98
-2.24
6.42
19.47
33.82
45.94
53.16
54.47
50.52
42.97
33.53
23.51
13.63
4.40
-3.61
-9.75
-13.48
-14.81
-14.45
-13.67
-13.89
-16.24
-21.14
-28.25
-36.66
-45.31
-53.33
-60.32
-66.33
-71.77
-77.07
-82.56
-88.36
-94.41
-100.45
-105.95
-110.05
-111.53
-109.00
-101.43
-88.55
-71.28
-51.56
-31.91
-14.69
-1.53
6.85
10.57
10.13
6.27
-0.20
-8.26
-16.62
-23.78
-28.42
-29.78
-27.97
-23.97
-19.27
-15.39
-13.36
-13.45
-15.31
-18.18
-21.33
-24.37
-27.33
-30.58
-34.58
-39.69
-45.98
-53.25
-60.98
-68.36
-74.23
-77.16
-75.64
-68.49
-55.33
-36.98
-15.39
6.74
26.68
42.35
52.74
57.85
58.39
55.40
49.93
43.12
36.11
30.12
26.21
24.99
26.42
29.73
33.72
37.07
38.82
38.51
36.23
32.46
27.76
22.61
17.25
11.71
5.85
-0.51
-7.51
-15.24
-23.60
-32.25
-40.42
-46.90
-50.16
-48.75
-41.77
-29.32
-12.66
6.08
24.46
40.28
51.98
58.85
60.81
58.31
52.11
43.29
33.17
23.26
14.99
9.44
7.04
7.44
9.63
12.24
14.02
14.18
12.57
9.60
5.94
2.19
-1.39
-4.91
-8.73
-13.25
-18.75
-25.29
-32.63
-40.18
-46.98
-51.78
-53.21
-50.10
-41.88
-28.83
-12.06
6.72
25.55
42.67
56.67
66.55
71.67
71.80
67.16
58.60
47.58
36.07
26.17
19.69
17.79
20.60
27.17
35.64
43.67
49.21
51.17
49.74
46.29
42.67
40.31
39.64
39.93
39.79
37.83
33.25
26.17
17.44
8.43
0.82
-3.68
-3.58
2.07
13.25
28.74
46.26
62.91
75.89
83.03
83.34
77.01
65.37
50.63
35.54
22.81
14.49
11.41
12.83
16.56
19.65
19.29
13.72
2.75
-12.28
-29.14
-45.49
-59.61
-70.72
-78.91
-84.84
-89.38
-93.35
-97.43
-102.10
-107.52
-113.27
-118.21
-120.49
-117.96
-108.97
-93.10
-71.65
-47.33
-23.60
-3.53
10.95
19.36
22.41
21.41
17.69
12.37
6.33
0.37
-4.76
-8.30
-9.75
-9.07
-6.73
-3.62
-0.84
0.68
0.46
-1.43
-4.47
-8.01
-11.51
-14.84
-18.23
-22.10
-26.85
-32.67
-39.55
-47.29
-55.54
-63.61
-70.36
-74.23
-73.46
-66.67
-53.42
-34.60
-12.29
10.69
31.61
48.33
59.70
65.50
66.22
62.81
56.51
48.73
40.88
34.24
29.69
27.61
27.81
29.68
32.34
34.93
36.72
37.20
36.14
33.54
29.61
24.72
19.28
13.68
8.17
2.85
-2.37
-7.72
-13.49
-19.96
-27.22
-34.96
-42.28
-47.68
-49.24
-45.15
-34.40
-17.34
4.11
26.78
46.98
61.46
68.10
66.33
56.97
41.95
23.71
4.87
-12.19
-25.59
-34.11
-37.32
-35.51
-29.56
-20.69
-10.26
0.52
10.64
19.45
26.62
32.13
36.14
38.89
40.57
41.38
41.56
41.55
41.96
43.42
46.30
50.49
55.40
60.18
64.22
67.50
70.74
75.09
81.59
90.51
101.08
111.64
120.21
125.13
125.44
120.95
111.98
99.15
83.38
66.04
48.94
34.02
22.70
15.16
10.23
5.85
0.08
-7.98
-17.84
-28.09
-37.33
-44.94
-51.30
-57.29
-63.71
-70.64
-77.52
-83.56
-88.30
-91.90
-95.17
-99.15
-104.72
-112.21
-121.17
-130.40
-138.08
-142.15
-140.88
-133.36
-119.79
-101.54
-80.71
-59.62
-40.34
-24.42
-12.82
-5.98
-3.86
-5.87
-10.84
-17.19
-23.15
-27.24
-28.52
-26.81
-22.60
-16.90
-10.99
-6.14
-3.47
-3.64
-6.67
-11.89
-18.10
-23.89
-28.10
-30.09
-29.89
-28.08
-25.61
-23.58
-22.95
-24.20
-27.02
-30.13
-31.49
-28.84
-20.50
-6.08
13.26
35.16
56.77
75.52
89.65
98.31
101.44
99.46
93.16
83.64
72.30
60.71
50.47
42.97
39.03
38.81
41.70
46.49
51.67
55.71
57.44
56.16
51.68
44.26
34.49
23.28
11.70
0.83
-8.49
-15.90
-21.56
-25.90
-29.27
-31.55
-32.14
-30.18
-25.18
-17.39
-7.98
1.33
8.88
13.66
15.49
14.84
12.42
8.68
3.77
-2.43
-9.90
-18.26
-26.71
-34.20
-39.70
-42.54
-42.56
-40.22
-36.45
-32.35
-28.92
-26.71
-25.76
-25.74
-26.20
-26.97
-28.17
-30.20
-33.39
-37.84
-43.38
-49.60
-56.05
-62.18
-67.20
-69.93
-68.96
-63.02
-51.61
-35.39
-16.17
3.56
21.38
35.47
44.94
49.65
49.91
46.27
39.55
30.91
21.87
14.15
9.16
7.55
9.05
12.49
16.31
19.09
19.92
18.69
15.84
12.10
8.12
4.22
0.40
-3.59
-8.11
-13.48
-19.86
-27.10
-34.63
-41.38
-45.89
-46.60
-42.33
-32.73
-18.55
-1.45
16.34
32.65
45.81
54.76
59.03
58.61
53.90
45.73
35.42
24.69
15.32
8.72
5.56
5.57
7.74
10.72
13.25
14.50
14.14
12.31
9.35
5.70
1.65
-2.66
-7.24
-12.31
-18.24
-25.38
-33.90
-43.43
-52.82
-60.18
-63.31
-60.38
-50.69
-35.05
-15.58
4.89
23.68
38.88
49.53
55.47
56.93
54.39
48.59
40.65
32.12
24.73
19.95
18.59
20.52
24.86
30.26
35.43
39.33
41.33
41.15
38.75
34.33
28.27
21.14
13.57
6.10
-1.00
-7.78
-14.45
-21.18
-27.71
-33.15
-36.14
-35.20
-29.30
-18.41
-3.62
13.16
29.81
44.67
56.88
66.31
73.24
77.88
80.14
79.69
76.28
70.02
61.58
52.08
42.87
35.08
29.27
25.23
22.03
18.30
12.79
4.74
-5.79
-18.01
-30.74
-42.83
-53.58
-62.86
-71.04
-78.74
-86.53
-94.69
-103.00
-110.66
-116.31
-118.30
-115.08
-105.79
-90.63
-70.97
-49.07
-27.59
-8.89
5.37
14.40
18.22
17.48
13.27
7.00
0.23
-5.52
-9.03
-9.63
-7.32
-2.77
2.93
8.52
12.97
15.65
16.56
16.13
15.08
14.10
13.55
13.36
13.09
12.07
9.72
5.74
0.37
-5.58
-10.64
-13.01
-10.86
-2.93
10.97
29.80
51.42
73.09
92.19
106.74
115.62
118.55
115.80
108.10
96.42
81.99
66.22
50.50
36.03
23.60
13.57
5.86
0.14
-4.05
-7.07
-9.14
-10.31
-10.58
-10.15
-9.65
-10.08
-12.63
-18.25
-27.27
-39.33
-53.40
-68.25
-82.63
-95.37
-105.23
-110.83
-110.72
-103.83
-89.98
-70.28
-47.03
-23.15
-1.46
16.05
28.45
35.69
38.29
36.95
32.42
25.62
17.70
10.06
4.12
0.92
0.82
3.38
7.54
11.96
15.43
17.22
17.09
15.25
12.13
8.19
3.79
-0.81
-5.41
-9.88
-14.22
-18.57
-23.21
-28.50
-34.64
-41.36
-47.78
-52.46
-53.66
-49.95
-40.69
-26.41
-8.71
10.10
27.63
41.98
52.00
57.29
58.03
54.78
48.28
39.56
29.87
20.64
13.26
8.71
7.38
8.85
12.15
15.94
18.94
20.22
19.40
16.59
12.29
7.10
1.61
-3.80
-8.98
-13.93
-18.80
-23.80
-29.25
-35.36
-42.07
-48.83
-54.47
-57.36
-55.83
-48.80
-36.27
-19.49
-0.66
17.66
33.23
44.55
50.97
52.54
49.86
43.86
35.75
26.93
18.79
12.53
8.83
7.81
8.97
11.39
13.96
15.66
15.77
13.96
10.37
5.43
-0.31
-6.35
-12.44
-18.50
-24.63
-30.97
-37.65
-44.78
-52.38
-60.29
-68.00
-74.52
-78.39
-77.98
-71.97
-59.92
-42.55
-21.72
-0.02
19.90
35.92
46.81
52.32
52.92
49.52
43.27
35.42
27.26
20.03
14.75
11.99
11.74
13.41
16.03
18.56
20.18
20.50
19.52
17.56
14.98
12.07
8.97
5.65
2.04
-1.94
-6.42
-11.57
-17.66
-24.88
-33.13
-41.71
-49.24
-53.85
-53.69
-47.65
-35.88
-19.96
-2.45
13.88
26.87
35.39
39.42
39.64
37.05
32.66
27.57
23.02
20.25
20.25
23.24
28.45
34.28
38.82
40.56
38.84
33.86
26.40
17.42
7.77
-1.80
-10.53
-17.65
-22.52
-24.87
-25.05
-24.08
-23.39
-24.48
-28.35
-35.15
-43.93
-52.74
-59.15
-60.97
-57.02
-47.51
-34.05
-19.00
-4.79
6.80
14.82
19.06
19.71
17.12
11.85
4.76
-2.86
-9.46
-13.67
-14.77
-12.96
-9.32
-5.38
-2.56
-1.74
-3.06
-6.08
-10.05
-14.25
-18.19
-21.73
-24.92
-28.00
-31.24
-34.96
-39.43
-44.76
-50.70
-56.45
-60.65
-61.57
-57.62
-47.94
-32.85
-13.89
6.51
25.76
41.63
52.71
58.42
58.86
54.57
46.48
35.92
24.61
14.49
7.29
4.01
4.59
7.86
11.90
14.75
14.99
12.15
6.67
-0.39
-7.88
-14.92
-21.19
-26.94
-32.84
-39.66
-47.94
-57.74
-68.40
-78.54
-86.27
-89.47
-86.31
-75.76
-57.89
-34.02
-6.46
21.95
48.41
70.67
87.41
98.21
103.44
104.00
101.08
96.04
90.29
85.19
81.85
80.85
82.00
84.37
86.45
86.68
83.90
77.70
68.45
57.04
44.48
31.60
18.90
6.58
-5.32
-16.81
-27.97
-39.00
-50.04
-61.04
-71.45
-80.07
-85.21
-85.16
-78.89
-66.50
-49.43
-30.06
-11.02
5.44
17.87
25.62
28.59
27.00
21.35
12.54
1.98
-8.49
-16.99
-22.05
-23.04
-20.36
-15.20
-9.13
-3.68
0.11
1.77
1.37
-0.68
-3.90
-7.85
-12.26
-16.94
-21.84
-27.02
-32.60
-38.66
-44.98
-50.81
-54.86
-55.54
-51.46
-42.10
-28.14
-11.32
6.05
21.78
34.34
43.00
47.69
48.74
46.68
42.27
36.54
30.80
26.40
24.37
25.14
28.35
33.03
37.95
42.01
44.58
45.54
45.22
44.11
42.65
41.13
39.68
38.35
37.09
35.69
33.75
30.75
26.40
21.00
15.70
12.37
12.99
18.89
30.10
45.21
61.76
77.03
88.87
96.12
98.66
97.00
91.88
84.04
74.15
63.02
51.71
41.48
33.45
28.23
25.60
24.51
23.49
21.16
16.79
10.49
3.07
-4.41
-11.16
-16.91
-21.97
-26.95
-32.47
-38.88
-46.13
-53.73
-60.71
-65.72
-67.25
-64.02
-55.43
-41.96
-25.13
-7.25
9.23
22.19
30.22
32.64
29.40
21.03
8.60
-6.30
-21.63
-35.29
-45.49
-51.16
-52.13
-49.10
-43.39
-36.54
-30.08
-25.17
-22.55
-22.42
-24.49
-28.08
-32.32
-36.39
-39.76
-42.45
-44.97
-48.24
-53.09
-59.84
-67.90
-75.65
-80.84
-81.19
-75.25
-62.94
-45.62
-25.73
-5.98
11.29
24.61
33.36
37.55
37.54
33.89
27.43
19.36
11.17
4.40
0.27
-0.73
1.07
4.68
8.77
12.10
13.90
13.90
12.31
9.58
6.18
2.42
-1.57
-5.82
-10.44
-15.58
-21.44
-28.20
-35.85
-43.98
-51.55
-56.96
-58.46
-54.66
-45.22
-31.01
-13.95
3.57
19.33
31.71
39.86
43.52
42.85
38.35
30.87
21.65
12.27
4.27
-1.13
-3.35
-2.56
0.41
4.40
8.20
10.83
11.72
10.78
8.26
4.62
0.32
-4.36
-9.36
-14.79
-20.87
-27.79
-35.55
-43.81
-51.71
-57.90
-60.69
-58.51
-50.53
-37.07
-19.71
-0.89
16.73
31.01
40.72
45.59
45.91
42.30
35.45
26.21
15.70
5.28
-3.60
-9.78
-12.81
-13.03
-11.45
-9.43
-8.18
-8.45
-10.55
-14.44
-19.97
-27.04
-35.50
-45.12
-55.48
-66.04
-76.35
-86.11
-95.14
-103.19
-109.57
-113.03
-111.85
-104.35
-89.50
-67.40
-39.53
-8.44
22.80
51.32
75.02
92.83
104.76
111.61
114.65
115.24
114.57
113.37
111.95
110.23
107.97
105.00
101.32
97.13
92.75
88.45
84.35
80.31
75.92
70.54
63.43
54.02
42.14
28.08
12.60
-3.38
-19.11
-34.16
-48.38
-61.52
-72.91
-81.24
-84.81
-82.09
-72.41
-56.44
-36.19
-14.48
5.77
22.30
33.96
40.58
42.72
41.21
36.88
30.57
23.24
16.04
10.22
6.88
6.56
8.98
13.08
17.32
20.20
20.72
18.65
14.45
9.01
3.20
-2.37
-7.54
-12.47
-17.49
-22.95
-29.06
-35.94
-43.62
-52.11
-61.29
-70.76
-79.73
-86.96
-90.95
-90.33
-84.42
-73.56
-59.20
-43.50
-28.76
-16.75
-8.41
-3.90
-2.83
-4.57
-8.41
-13.49
-18.78
-23.14
-25.54
-25.32
-22.51
-17.73
-12.06
-6.61
-2.30
0.41
1.46
1.05
-0.45
-2.65
-5.23
-7.96
-10.75
-13.66
-16.92
-20.83
-25.77
-31.97
-39.36
-47.38
-54.86
-60.13
-61.34
-57.06
-46.73
-31.06
-11.92
8.10
26.36
40.80
50.27
54.53
54.04
49.65
42.45
33.69
24.71
16.84
11.14
8.17
7.80
9.31
11.66
13.82
15.09
15.21
14.29
12.62
10.45
7.87
4.87
1.38
-2.60
-7.06
-12.01
-17.60
-23.98
-31.18
-38.76
-45.60
-50.00
-50.10
-44.53
-33.04
-16.65
2.53
21.95
39.28
52.87
61.89
66.12
65.81
61.54
54.22
45.20
36.10
28.54
23.75
22.18
23.46
26.49
29.93
32.56
33.65
33.03
30.96
27.81
23.90
19.37
14.27
8.70
2.80
-3.30
-9.50
-15.83
-22.15
-27.98
-32.29
-33.63
-30.59
-22.38
-9.30
7.24
25.08
41.86
55.61
65.07
69.70
69.55
65.08
57.15
46.96
35.98
25.76
17.67
12.60
10.75
11.58
13.99
16.66
18.41
18.52
16.89
13.90
10.15
6.15
2.05
-2.31
-7.30
-13.29
-20.44
-28.67
-37.58
-46.36
-53.78
-58.27
-58.23
-52.57
-41.17
-25.12
-6.50
12.19
28.62
41.15
48.95
51.85
50.21
44.70
36.36
26.53
16.83
8.83
3.73
2.07
3.54
7.15
11.51
15.30
17.57
18.05
17.01
15.05
12.76
10.43
7.95
4.94
0.96
-4.28
-10.78
-18.21
-25.94
-33.00
-38.24
-40.39
-38.39
-31.72
-20.67
-6.45
9.09
23.82
35.82
43.71
46.81
45.11
39.16
29.98
18.97
7.74
-2.16
-9.51
-13.71
-14.86
-13.64
-11.08
-8.26
-6.05
-5.01
-5.35
-7.03
-9.83
-13.46
-17.66
-22.32
-27.47
-33.32
-40.04
-47.52
-55.16
-61.81
-65.91
-65.95
-60.89
-50.63
-36.04
-18.76
-0.82
15.87
29.77
39.86
45.59
46.84
43.97
37.87
29.93
21.83
15.22
11.25
10.36
12.21
15.89
20.22
24.10
26.71
27.65
26.88
24.67
21.43
17.56
13.35
8.94
4.28
-0.76
-6.33
-12.40
-18.65
-24.28
-28.09
-28.72
-25.05
-16.75
-4.46
10.33
25.69
39.81
51.39
59.67
64.32
65.23
62.51
56.57
48.34
39.20
30.75
24.29
20.48
19.12
19.30
19.80
19.55
17.92
14.81
10.55
5.61
0.38
-4.94
-10.27
-15.59
-20.84
-25.96
-30.98
-36.06
-41.36
-46.75
-51.62
-54.84
-55.10
-51.39
-43.51
-32.27
-19.22
-6.21
5.17
13.80
19.15
21.08
19.71
15.42
8.93
1.36
-5.96
-11.69
-14.88
-15.20
-12.96
-9.04
-4.54
-0.55
2.12
3.10
2.41
0.41
-2.41
-5.57
-8.76
-11.86
-14.88
-17.99
-21.45
-25.56
-30.47
-36.08
-41.70
-46.11
-47.66
-44.80
-36.61
-23.26
-6.11
12.66
30.58
45.55
56.12
61.73
62.46
58.91
52.04
43.11
33.56
24.83
18.15
14.19
13.00
13.99
16.14
18.31
19.56
19.33
17.46
14.23
10.08
5.56
1.10
-3.06
-6.92
-10.66
-14.56
-18.91
-23.92
-29.70
-36.12
-42.77
-48.78
-52.87
-53.61
-49.84
-41.16
-28.20
-12.60
3.46
17.83
28.89
35.83
38.54
37.44
33.22
26.76
19.17
11.68
5.48
1.49
0.08
1.01
3.49
6.43
8.81
9.83
9.12
6.66
2.73
-2.21
-7.66
-13.13
-18.24
-22.85
-27.04
-31.07
-35.37
-40.35
-46.17
-52.67
-59.07
-64.13
-66.24
-63.94
-56.40
-43.78
-27.33
-9.08
8.67
23.95
35.48
42.68
45.58
44.61
40.53
34.36
27.37
20.92
16.18
13.84
14.03
16.26
19.66
23.27
26.30
28.20
28.70
27.78
25.57
22.32
18.31
13.85
9.22
4.61
0.06
-4.50
-9.32
-14.68
-20.79
-27.67
-34.94
-41.80
-47.14
-49.80
-48.84
-43.88
-35.24
-23.73
-10.44
3.59
17.42
30.15
40.74
48.04
51.01
49.18
42.96
33.60
22.90
12.70
4.48
-0.79
-2.62
-1.02
3.50
9.93
16.82
22.64
26.17
26.85
24.85
20.91
16.01
11.10
7.00
4.39
3.74
5.14
8.04
11.17
12.61
10.26
2.47
-11.28
-29.94
-50.87
-70.33
-84.42
-90.09
-86.01
-72.84
-52.96
-29.77
-6.83
12.90
27.40
35.77
38.10
35.33
28.96
20.86
12.87
6.48
2.57
1.28
2.21
4.64
7.84
11.28
14.64
17.67
20.11
21.59
21.74
20.36
17.45
13.26
8.15
2.52
-3.32
-9.13
-14.78
-20.24
-25.60
-31.08
-36.89
-43.07
-49.21
-54.34
-57.00
-55.70
-49.45
-38.22
-23.18
-6.38
9.82
23.35
32.91
38.03
38.96
36.29
30.89
23.76
16.12
9.27
4.47
2.56
3.73
7.46
12.71
18.22
22.89
26.04
27.41
27.17
25.74
23.62
21.35
19.39
18.06
17.49
17.49
17.60
17.12
15.34
11.74
6.24
-0.62
-7.68
-13.38
-16.21
-15.16
-10.15
-2.14
7.20
15.96
22.53
25.92
25.66
21.67
14.08
3.30
-9.79
-23.77
-36.78
-47.00
-53.13
-54.74
-52.30
-47.00
-40.32
-33.71
-28.30
-24.69
-22.75
-21.58
-19.82
-16.16
-10.10
-2.42
4.88
9.17
8.11
0.54
-13.17
-31.22
-50.84
-68.89
-82.48
-89.30
-88.05
-78.64
-62.30
-41.31
-18.58
2.96
20.89
33.63
40.49
41.60
37.75
30.27
20.91
11.57
3.94
-0.80
-2.22
-0.60
3.21
8.13
13.05
17.00
19.34
19.73
18.21
15.07
10.84
6.08
1.22
-3.53
-8.21
-13.06
-18.44
-24.69
-31.95
-39.95
-47.82
-54.08
-56.90
-54.60
-46.26
-32.20
-14.00
5.81
24.50
39.79
50.32
55.66
56.19
52.69
46.20
37.83
28.79
20.27
13.34
8.75
6.79
7.26
9.53
12.72
15.87
18.19
19.17
18.64
16.78
14.04
10.90
7.76
4.87
2.29
-0.03
-2.23
-4.60
-7.51
-11.40
-16.43
-22.14
-27.28
-29.97
-28.18
-20.54
-6.89
11.49
32.18
52.36
69.63
82.56
90.89
95.23
96.61
96.04
94.27
91.75
88.84
85.86
83.22
81.23
79.99
79.24
78.42
76.90
74.16
69.99
64.42
57.65
49.90
41.33
32.06
22.21
11.89
1.17
-10.00
-21.81
-34.56
-48.38
-63.04
-77.66
-90.60
-99.75
-103.00
-98.94
-87.38
-69.55
-47.87
-25.26
-4.47
12.51
24.62
31.76
34.59
34.31
32.39
30.28
29.00
28.80
29.05
28.46
25.50
19.03
8.73
-4.67
-19.61
-34.12
-46.42
-55.33
-60.56
-62.57
-62.28
-60.68
-58.52
-56.23
-54.06
-52.29
-51.36
-51.82
-54.14
-58.32
-63.61
-68.51
-70.99
-69.18
-61.98
-49.59
-33.48
-15.90
0.84
15.06
25.96
33.50
37.94
39.57
38.64
35.54
31.01
26.18
22.23
20.01
19.74
21.01
22.99
24.89
26.22
26.84
26.84
26.27
24.99
22.75
19.33
14.74
9.22
3.21
-2.86
-8.84
-14.86
-21.48
-29.48
-39.67
-52.50
-67.73
-84.06
-99.26
-110.60
-115.66
-113.25
-103.81
-89.37
-72.76
-56.70
-43.00
-32.39
-24.80
-19.85
-17.26
-16.82
-18.16
-20.42
-22.36
-22.59
-20.11
-14.70
-6.92
2.20
11.51
20.04
27.09
32.08
34.60
34.48
32.02
28.02
23.55
19.56
16.43
13.87
11.13
7.44
2.41
-3.95
-11.46
-20.06
-29.86
-40.84
-52.33
-62.69
-69.54
-70.44
-63.86
-49.94
-30.52
-8.64
12.47
30.22
43.21
51.08
54.23
53.31
49.12
42.57
34.82
27.24
21.17
17.62
16.97
18.91
22.63
27.06
31.20
34.31
35.87
35.67
33.68
30.03
24.98
18.90
12.30
5.77
-0.07
-4.68
-7.76
-9.42
-10.26
-11.29
-13.55
-17.73
-23.73
-30.51
-36.20
-38.74
-36.41
-28.55
-15.69
0.57
18.08
34.77
49.05
59.91
66.87
69.77
68.64
63.87
56.21
46.81
37.07
28.21
21.08
15.90
12.43
10.14
8.52
7.18
5.93
4.69
3.42
2.12
0.77
-0.65
-2.15
-3.76
-5.57
-7.69
-10.29
-13.64
-17.92
-23.21
-29.23
-35.20
-39.84
-41.60
-39.09
-31.63
-19.58
-4.27
12.35
28.27
41.93
52.36
59.14
62.17
61.46
57.17
49.71
39.88
28.91
18.31
9.50
3.50
0.59
0.30
1.56
3.05
3.63
2.71
0.31
-3.10
-6.91
-10.76
-14.70
-19.13
-24.61
-31.61
-40.39
-50.96
-63.01
-75.78
-87.86
-97.15
-101.24
-98.17
-87.25
-69.61
-48.06
-26.20
-7.37
6.32
14.29
17.19
16.34
13.16
8.95
4.89
2.09
1.55
3.96
9.46
17.50
26.98
36.49
44.63
50.31
52.97
52.59
49.71
45.13
39.60
33.54
26.92
19.37
10.39
-0.34
-12.82
-26.52
-40.45
-53.08
-62.58
-67.12
-65.35
-56.92
-42.66
-24.47
-4.73
14.31
30.97
44.24
53.47
58.19
58.04
53.04
43.89
32.18
20.08
9.87
3.29
1.06
2.72
6.92
11.91
16.06
18.27
18.11
15.73
11.58
