-0	-0	-0	-0	-0	-0	-0	-0	-0	-0	0	0.01	0.01	-0	-0.03	-0.05	-0.05	0	0.13	0.36	0.66	1.01	1.37	1.72	2.06	2.4	2.78	3.23	3.79	4.43	5.1	5.72	6.24	6.64	6.95	7.25	7.61	8.17	8.87	9.62	10.32	10.88	11.31	11.74	12.39	13.45	15.17	17.42	19.92	22.37	24.51	26.33	28.1	30.24	33.16	37.35	42.56	48.31	53.91	58.83	62.89	66.45	70.2	74.87	81.3	89.26	98.04	106.6	113.97	119.73	124.2	128.72	132.35	137.94	146.62	158.7	172.76	185.26	191.1	185.15	164	127.28	78.19	21.35	-38.49	-98.18	-156.69	-214.57	-272.86	-332.18	-392.19	-450.99	-505.76	-552.4	-586.04	-602.14	-597.72	-572.45	-528.72	-470.99	-404.13	-332.73	-260.27	-189.27	-121.77	-59.43	-3.49	45.57	87.96	124.49	155.77	182.04	203.09	218.46	227.88	231.6	230.44	225.71	218.78	210.73	202.13	193.04	183.2	172.39	160.6	148.14	135.54	123.39
81.3	89.26	98.04	106.6	113.97	119.73	124.2	128.72	132.35	137.94	146.62	158.7	172.76	185.26	191.1	185.15	164	127.28	78.19	21.35	-38.49	-98.18	-156.69	-214.57	-272.86	-332.18	-392.19	-450.99	-505.76	-552.4	-586.04	-602.14	-597.72	-572.45	-528.72	-470.99	-404.13	-332.73	-260.27	-189.27	-121.77	-59.43	-3.49	45.57	87.96	124.49	155.77	182.04	203.09	218.46	227.88	231.6	230.44	225.71	218.78	210.73	202.13	193.04	183.2	172.39	160.6	148.14	135.54	123.39	112.1	101.89	92.7	84.31	76.38	68.63	60.85	53.01	45.26	37.82	30.9	24.68	19.17	14.28	9.97	6.05	2.41	-0.92	-3.84	-6.23	-8.05	-9.35	-10.28	-11	-11.6	-12.06	-12.3	-12.27	-12.01	-11.64	-11.28	-10.95	-10.58	-10.06	-9.29	-8.35	-7.42	-6.71	-6.36	-6.37	-6.56	-6.73	-6.8	-6.75	-6.66	-6.65	-6.75	-6.93	-7.1	-7.17	-7.11	-6.98	-6.89	-6.96	-7.25	-7.74	-8.37	-9.06	-9.73	-10.37	-10.97	-11.56	-12.09	-12.54
112.1	101.89	92.7	84.31	76.38	68.63	60.85	53.01	45.26	37.82	30.9	24.68	19.17	14.28	9.97	6.05	2.41	-0.92	-3.84	-6.23	-8.05	-9.35	-10.28	-11	-11.6	-12.06	-12.3	-12.27	-12.01	-11.64	-11.28	-10.95	-10.58	-10.06	-9.29	-8.35	-7.42	-6.71	-6.36	-6.37	-6.56	-6.73	-6.8	-6.75	-6.66	-6.65	-6.75	-6.93	-7.1	-7.17	-7.11	-6.98	-6.89	-6.96	-7.25	-7.74	-8.37	-9.06	-9.73	-10.37	-10.97	-11.56	-12.09	-12.54	-12.9	-13.24	-13.63	-14.13	-14.74	-15.39	-15.97	-16.39	-16.57	-16.44	-15.95	-15.29	-14.51	-13.66	-12.74	-11.78	-10.79	-9.76	-8.73	-7.7	-6.68	-5.64	-4.57	-3.54	-2.61	-1.88	-1.38	-1.07	-0.78	-0.41	0.14	0.84	1.58	2.25	2.83	3.39	4.06	4.9	5.87	6.83	7.63	8.14	8.35	8.28	8	7.48	6.64	5.4	3.72	1.65	-0.63	-2.91	-5.01	-6.82	-8.3	-9.45	-10.27	-10.73	-10.79	-10.44	-9.7	-8.64	-7.34	-5.91
-12.9	-13.24	-13.63	-14.13	-14.74	-15.39	-15.97	-16.39	-16.57	-16.44	-15.95	-15.29	-14.51	-13.66	-12.74	-11.78	-10.79	-9.76	-8.73	-7.7	-6.68	-5.64	-4.57	-3.54	-2.61	-1.88	-1.38	-1.07	-0.78	-0.41	0.14	0.84	1.58	2.25	2.83	3.39	4.06	4.9	5.87	6.83	7.63	8.14	8.35	8.28	8	7.48	6.64	5.4	3.72	1.65	-0.63	-2.91	-5.01	-6.82	-8.3	-9.45	-10.27	-10.73	-10.79	-10.44	-9.7	-8.64	-7.34	-5.91	-4.45	-3.05	-1.77	-0.62	0.49	1.64	2.92	4.34	5.83	7.27	8.59	9.76	10.83	11.88	12.99	14.2	15.5	16.9	18.36	19.88	21.39	22.86	24.24	25.51	26.65	27.69	28.61	29.39	29.99	30.35	30.47	30.36	30.06	29.6	29.04	28.38	27.62	26.76	25.76	24.59	23.21	21.61	19.8	17.86	15.86	13.91	12.08	10.41	8.9	7.54	6.34	5.32	4.49	3.82	3.22	2.58	1.82	0.93	0.01	-0.84	-1.53	-2.01	-2.35	-2.63
-4.45	-3.05	-1.77	-0.62	0.49	1.64	2.92	4.34	5.83	7.27	8.59	9.76	10.83	11.88	12.99	14.2	15.5	16.9	18.36	19.88	21.39	22.86	24.24	25.51	26.65	27.69	28.61	29.39	29.99	30.35	30.47	30.36	30.06	29.6	29.04	28.38	27.62	26.76	25.76	24.59	23.21	21.61	19.8	17.86	15.86	13.91	12.08	10.41	8.9	7.54	6.34	5.32	4.49	3.82	3.22	2.58	1.82	0.93	0.01	-0.84	-1.53	-2.01	-2.35	-2.63	-2.92	-3.25	-3.61	-3.95	-4.22	-4.39	-4.46	-4.44	-4.35	-4.2	-4.05	-3.9	-3.77	-3.67	-3.59	-3.51	-3.45	-3.43	-3.48	-3.63	-3.87	-4.15	-4.42	-4.67	-4.89	-5.13	-5.44	-5.82	-6.26	-6.69	-7.03	-7.16	-7.03	-6.59	-5.89	-5.03	-4.17	-3.47	-3.02	-2.83	-2.83	-2.89	-2.86	-2.66	-2.26	-1.73	-1.19	-0.76	-0.51	-0.47	-0.6	-0.83	-1.08	-1.31	-1.52	-1.75	-1.99	-2.22	-2.38	-2.4	-2.24	-1.94	-1.58	-1.3
-2.92	-3.25	-3.61	-3.95	-4.22	-4.39	-4.46	-4.44	-4.35	-4.2	-4.05	-3.9	-3.77	-3.67	-3.59	-3.51	-3.45	-3.43	-3.48	-3.63	-3.87	-4.15	-4.42	-4.67	-4.89	-5.13	-5.44	-5.82	-6.26	-6.69	-7.03	-7.16	-7.03	-6.59	-5.89	-5.03	-4.17	-3.47	-3.02	-2.83	-2.83	-2.89	-2.86	-2.66	-2.26	-1.73	-1.19	-0.76	-0.51	-0.47	-0.6	-0.83	-1.08	-1.31	-1.52	-1.75	-1.99	-2.22	-2.38	-2.4	-2.24	-1.94	-1.58	-1.3	-1.2	-1.29	-1.49	-1.64	-1.64	-1.48	-1.27	-1.2	-1.38	-1.81	-2.35	-2.82	-3.11	-3.2	-3.19	-3.17	-3.17	-3.14	-2.95	-2.57	-2.02	-1.43	-0.94	-0.59	-0.38	-0.25	-0.14	-0.05	0.01	0.04	0.04	0.07	0.09	0.09	-0.01	-0.22	-0.45	-0.61	-0.59	-0.34	0.05	0.47	0.82	1.02	1.06	0.93	0.65	0.24	-0.24	-0.66	-0.89	-0.85	-0.57	-0.19	0.07	0.02	-0.43	-1.2	-2.13	-2.96	-3.51	-3.65	-3.41	-2.88
-1.2	-1.29	-1.49	-1.64	-1.64	-1.48	-1.27	-1.2	-1.38	-1.81	-2.35	-2.82	-3.11	-3.2	-3.19	-3.17	-3.17	-3.14	-2.95	-2.57	-2.02	-1.43	-0.94	-0.59	-0.38	-0.25	-0.14	-0.05	0.01	0.04	0.04	0.07	0.09	0.09	-0.01	-0.22	-0.45	-0.61	-0.59	-0.34	0.05	0.47	0.82	1.02	1.06	0.93	0.65	0.24	-0.24	-0.66	-0.89	-0.85	-0.57	-0.19	0.07	0.02	-0.43	-1.2	-2.13	-2.96	-3.51	-3.65	-3.41	-2.88	-2.21	-1.52	-0.91	-0.41	-0.04	0.19	0.28	0.26	0.17	0.06	0.01	0.03	0.08	0.11	0.05	-0.1	-0.34	-0.6	-0.81	-0.89	-0.82	-0.59	-0.23	0.21	0.61	0.9	0.99	0.87	0.56	0.15	-0.31	-0.77	-1.23	-1.7	-2.17	-2.64	-3.06	-3.38	-3.59	-3.69	-3.71	-3.66	-3.55	-3.32	-2.94	-2.42	-1.77	-1.08	-0.43	0.1	0.44	0.55	0.43	0.13	-0.25	-0.57	-0.73	-0.68	-0.45	-0.12	0.2	0.48	0.69	0.84
-2.21	-1.52	-0.91	-0.41	-0.04	0.19	0.28	0.26	0.17	0.06	0.01	0.03	0.08	0.11	0.05	-0.1	-0.34	-0.6	-0.81	-0.89	-0.82	-0.59	-0.23	0.21	0.61	0.9	0.99	0.87	0.56	0.15	-0.31	-0.77	-1.23	-1.7	-2.17	-2.64	-3.06	-3.38	-3.59	-3.69	-3.71	-3.66	-3.55	-3.32	-2.94	-2.42	-1.77	-1.08	-0.43	0.1	0.44	0.55	0.43	0.13	-0.25	-0.57	-0.73	-0.68	-0.45	-0.12	0.2	0.48	0.69	0.84	0.94	0.94	0.82	0.61	0.36	0.17	0.12	0.23	0.43	0.64	0.77	0.79	0.74	0.66	0.6	0.58	0.57	0.51	0.36	0.09	-0.27	-0.65	-0.97	-1.14	-1.11	-0.88	-0.48	-0.01	0.43	0.77	0.96	1.03	1.01	0.96	0.85	0.67	0.37	-0.02	-0.4	-0.62	-0.62	-0.4	-0.08	0.21	0.37	0.4	0.37	0.35	0.39	0.44	0.46	0.41	0.29	0.15	0.03	-0.01	-0	0.03	0.02	-0.05	-0.2	-0.37	-0.51	-0.57
0.94	0.94	0.82	0.61	0.36	0.17	0.12	0.23	0.43	0.64	0.77	0.79	0.74	0.66	0.6	0.58	0.57	0.51	0.36	0.09	-0.27	-0.65	-0.97	-1.14	-1.11	-0.88	-0.48	-0.01	0.43	0.77	0.96	1.03	1.01	0.96	0.85	0.67	0.37	-0.02	-0.4	-0.62	-0.62	-0.4	-0.08	0.21	0.37	0.4	0.37	0.35	0.39	0.44	0.46	0.41	0.29	0.15	0.03	-0.01	-0	0.03	0.02	-0.05	-0.2	-0.37	-0.51	-0.57	-0.55	-0.51	-0.56	-0.77	-1.12	-1.51	-1.79	-1.84	-1.63	-1.25	-0.84	-0.54	-0.36	-0.27	-0.15	0.06	0.34	0.58	0.66	0.54	0.26	-0.04	-0.23	-0.3	-0.3	-0.36	-0.53	-0.78	-0.96	-0.93	-0.65	-0.2	0.24	0.51	0.57	0.5	0.45	0.54	0.81	1.14	1.42	1.55	1.5	1.27	0.92	0.47	-0.06	-0.62	-1.18	-1.68	-2.09	-2.41	-2.64	-2.8	-2.86	-2.76	-2.46	-1.95	-1.32	-0.66	-0.09	0.32	0.56	0.65
-0.55	-0.51	-0.56	-0.77	-1.12	-1.51	-1.79	-1.84	-1.63	-1.25	-0.84	-0.54	-0.36	-0.27	-0.15	0.06	0.34	0.58	0.66	0.54	0.26	-0.04	-0.23	-0.3	-0.3	-0.36	-0.53	-0.78	-0.96	-0.93	-0.65	-0.2	0.24	0.51	0.57	0.5	0.45	0.54	0.81	1.14	1.42	1.55	1.5	1.27	0.92	0.47	-0.06	-0.62	-1.18	-1.68	-2.09	-2.41	-2.64	-2.8	-2.86	-2.76	-2.46	-1.95	-1.32	-0.66	-0.09	0.32	0.56	0.65	0.66	0.64	0.62	0.62	0.62	0.6	0.57	0.53	0.5	0.5	0.54	0.58	0.61	0.59	0.55	0.51	0.51	0.55	0.62	0.63	0.56	0.37	0.11	-0.18	-0.44	-0.61	-0.67	-0.62	-0.5	-0.38	-0.37	-0.54	-0.92	-1.42	-1.9	-2.19	-2.24	-2.09	-1.88	-1.73	-1.64	-1.55	-1.32	-0.9	-0.33	0.27	0.75	1.07	1.26	1.38	1.48	1.51	1.4	1.1	0.69	0.31	0.13	0.25	0.62	1.09	1.46	1.6	1.47	1.15
0.66	0.64	0.62	0.62	0.62	0.6	0.57	0.53	0.5	0.5	0.54	0.58	0.61	0.59	0.55	0.51	0.51	0.55	0.62	0.63	0.56	0.37	0.11	-0.18	-0.44	-0.61	-0.67	-0.62	-0.5	-0.38	-0.37	-0.54	-0.92	-1.42	-1.9	-2.19	-2.24	-2.09	-1.88	-1.73	-1.64	-1.55	-1.32	-0.9	-0.33	0.27	0.75	1.07	1.26	1.38	1.48	1.51	1.4	1.1	0.69	0.31	0.13	0.25	0.62	1.09	1.46	1.6	1.47	1.15	0.76	0.39	0.05	-0.27	-0.55	-0.79	-0.93	-0.95	-0.88	-0.8	-0.81	-0.95	-1.22	-1.55	-1.86	-2.13	-2.36	-2.58	-2.79	-2.94	-2.96	-2.81	-2.51	-2.15	-1.82	-1.56	-1.29	-0.92	-0.39	0.27	0.94	1.43	1.61	1.48	1.11	0.69	0.41	0.38	0.62	1.04	1.45	1.69	1.65	1.3	0.73	0.04	-0.62	-1.18	-1.58	-1.77	-1.74	-1.52	-1.23	-1.02	-1.05	-1.39	-1.99	-2.71	-3.37	-3.9	-4.32	-4.71	-5.17	-5.7
0.76	0.39	0.05	-0.27	-0.55	-0.79	-0.93	-0.95	-0.88	-0.8	-0.81	-0.95	-1.22	-1.55	-1.86	-2.13	-2.36	-2.58	-2.79	-2.94	-2.96	-2.81	-2.51	-2.15	-1.82	-1.56	-1.29	-0.92	-0.39	0.27	0.94	1.43	1.61	1.48	1.11	0.69	0.41	0.38	0.62	1.04	1.45	1.69	1.65	1.3	0.73	0.04	-0.62	-1.18	-1.58	-1.77	-1.74	-1.52	-1.23	-1.02	-1.05	-1.39	-1.99	-2.71	-3.37	-3.9	-4.32	-4.71	-5.17	-5.7	-6.2	-6.53	-6.59	-6.35	-5.86	-5.22	-4.5	-3.7	-2.81	-1.78	-0.66	0.49	1.52	2.31	2.79	2.97	2.87	2.55	2.06	1.45	0.75	0.04	-0.64	-1.24	-1.76	-2.18	-2.46	-2.57	-2.44	-2.08	-1.52	-0.83	-0.09	0.65	1.36	2.05	2.7	3.27	3.7	4.01	4.22	4.38	4.53	4.66	4.72	4.67	4.48	4.13	3.68	3.16	2.65	2.23	1.95	1.82	1.78	1.77	1.74	1.67	1.62	1.66	1.82	2.08	2.38	2.63
-6.2	-6.53	-6.59	-6.35	-5.86	-5.22	-4.5	-3.7	-2.81	-1.78	-0.66	0.49	1.52	2.31	2.79	2.97	2.87	2.55	2.06	1.45	0.75	0.04	-0.64	-1.24	-1.76	-2.18	-2.46	-2.57	-2.44	-2.08	-1.52	-0.83	-0.09	0.65	1.36	2.05	2.7	3.27	3.7	4.01	4.22	4.38	4.53	4.66	4.72	4.67	4.48	4.13	3.68	3.16	2.65	2.23	1.95	1.82	1.78	1.77	1.74	1.67	1.62	1.66	1.82	2.08	2.38	2.63	2.78	2.82	2.74	2.55	2.26	1.88	1.4	0.82	0.13	-0.7	-1.65	-2.62	-3.45	-3.96	-4.04	-3.71	-3.09	-2.39	-1.8	-1.38	-1.11	-0.89	-0.62	-0.22	0.28	0.81	1.29	1.66	1.89	2	2.03	2.02	2.07	2.28	2.78	3.66	4.88	6.33	7.79	9.08	10.04	10.64	10.88	10.81	10.46	9.86	9.09	8.26	7.52	6.92	6.42	5.88	5.14	4.1	2.81	1.38	-0.02	-1.26	-2.33	-3.28	-4.21	-5.18	-6.22	-7.31
2.78	2.82	2.74	2.55	2.26	1.88	1.4	0.82	0.13	-0.7	-1.65	-2.62	-3.45	-3.96	-4.04	-3.71	-3.09	-2.39	-1.8	-1.38	-1.11	-0.89	-0.62	-0.22	0.28	0.81	1.29	1.66	1.89	2	2.03	2.02	2.07	2.28	2.78	3.66	4.88	6.33	7.79	9.08	10.04	10.64	10.88	10.81	10.46	9.86	9.09	8.26	7.52	6.92	6.42	5.88	5.14	4.1	2.81	1.38	-0.02	-1.26	-2.33	-3.28	-4.21	-5.18	-6.22	-7.31	-8.42	-9.53	-10.64	-11.7	-12.6	-13.16	-13.22	-12.62	-11.35	-9.53	-7.4	-5.16	-3	-0.99	0.82	2.39	3.63	4.43	4.76	4.68	4.36	3.99	3.72	3.55	3.42	3.22	2.9	2.46	1.97	1.54	1.23	1.09	1.11	1.28	1.57	1.91	2.25	2.51	2.62	2.52	2.21	1.73	1.23	0.87	0.75	0.9	1.16	1.31	1.14	0.57	-0.3	-1.28	-2.2	-2.97	-3.62	-4.23	-4.86	-5.53	-6.18	-6.83	-7.51	-8.3	-9.25	-10.29
-8.42	-9.53	-10.64	-11.7	-12.6	-13.16	-13.22	-12.62	-11.35	-9.53	-7.4	-5.16	-3	-0.99	0.82	2.39	3.63	4.43	4.76	4.68	4.36	3.99	3.72	3.55	3.42	3.22	2.9	2.46	1.97	1.54	1.23	1.09	1.11	1.28	1.57	1.91	2.25	2.51	2.62	2.52	2.21	1.73	1.23	0.87	0.75	0.9	1.16	1.31	1.14	0.57	-0.3	-1.28	-2.2	-2.97	-3.62	-4.23	-4.86	-5.53	-6.18	-6.83	-7.51	-8.3	-9.25	-10.29	-11.23	-11.86	-12.01	-11.68	-11	-10.18	-9.4	-8.7	-8.02	-7.22	-6.18	-4.88	-3.38	-1.8	-0.2	1.4	3	4.59	6.11	7.44	8.48	9.2	9.62	9.81	9.81	9.64	9.29	8.76	8.11	7.45	6.9	6.56	6.44	6.47	6.5	6.39	6.04	5.42	4.62	3.78	3.03	2.48	2.12	1.92	1.8	1.71	1.63	1.56	1.49	1.37	1.13	0.73	0.2	-0.36	-0.87	-1.23	-1.46	-1.61	-1.76	-1.94	-2.09	-2.11	-1.98	-1.74
-11.23	-11.86	-12.01	-11.68	-11	-10.18	-9.4	-8.7	-8.02	-7.22	-6.18	-4.88	-3.38	-1.8	-0.2	1.4	3	4.59	6.11	7.44	8.48	9.2	9.62	9.81	9.81	9.64	9.29	8.76	8.11	7.45	6.9	6.56	6.44	6.47	6.5	6.39	6.04	5.42	4.62	3.78	3.03	2.48	2.12	1.92	1.8	1.71	1.63	1.56	1.49	1.37	1.13	0.73	0.2	-0.36	-0.87	-1.23	-1.46	-1.61	-1.76	-1.94	-2.09	-2.11	-1.98	-1.74	-1.51	-1.4	-1.46	-1.61	-1.72	-1.72	-1.62	-1.53	-1.55	-1.71	-1.91	-2.02	-1.95	-1.7	-1.36	-1.03	-0.73	-0.43	-0.06	0.43	0.98	1.51	1.89	2.1	2.16	2.18	2.27	2.49	2.82	3.21	3.58	3.87	4.1	4.28	4.46	4.69	4.96	5.26	5.55	5.83	6.07	6.29	6.49	6.65	6.72	6.64	6.37	5.87	5.17	4.3	3.26	2.03	0.53	-1.24	-3.21	-5.24	-7.13	-8.75	-10.08	-11.13	-11.92	-12.41	-12.54	-12.3
-1.51	-1.4	-1.46	-1.61	-1.72	-1.72	-1.62	-1.53	-1.55	-1.71	-1.91	-2.02	-1.95	-1.7	-1.36	-1.03	-0.73	-0.43	-0.06	0.43	0.98	1.51	1.89	2.1	2.16	2.18	2.27	2.49	2.82	3.21	3.58	3.87	4.1	4.28	4.46	4.69	4.96	5.26	5.55	5.83	6.07	6.29	6.49	6.65	6.72	6.64	6.37	5.87	5.17	4.3	3.26	2.03	0.53	-1.24	-3.21	-5.24	-7.13	-8.75	-10.08	-11.13	-11.92	-12.41	-12.54	-12.3	-11.75	-11.08	-10.46	-9.99	-9.65	-9.32	-8.87	-8.24	-7.47	-6.65	-5.89	-5.28	-4.87	-4.66	-4.6	-4.57	-4.45	-4.11	-3.57	-2.93	-2.39	-2.09	-2.1	-2.3	-2.53	-2.6	-2.4	-1.96	-1.34	-0.65	0.02	0.63	1.13	1.5	1.75	1.89	1.92	1.88	1.79	1.69	1.63	1.64	1.76	1.98	2.22	2.41	2.47	2.36	2.12	1.84	1.62	1.51	1.51	1.56	1.55	1.38	0.98	0.32	-0.54	-1.53	-2.53	-3.42	-4.15	-4.67
-11.75	-11.08	-10.46	-9.99	-9.65	-9.32	-8.87	-8.24	-7.47	-6.65	-5.89	-5.28	-4.87	-4.66	-4.6	-4.57	-4.45	-4.11	-3.57	-2.93	-2.39	-2.09	-2.1	-2.3	-2.53	-2.6	-2.4	-1.96	-1.34	-0.65	0.02	0.63	1.13	1.5	1.75	1.89	1.92	1.88	1.79	1.69	1.63	1.64	1.76	1.98	2.22	2.41	2.47	2.36	2.12	1.84	1.62	1.51	1.51	1.56	1.55	1.38	0.98	0.32	-0.54	-1.53	-2.53	-3.42	-4.15	-4.67	-5.01	-5.27	-5.54	-5.89	-6.32	-6.73	-6.96	-6.87	-6.36	-5.45	-4.25	-2.91	-1.58	-0.4	0.56	1.24	1.66	1.83	1.83	1.72	1.57	1.43	1.32	1.28	1.29	1.37	1.51	1.65	1.73	1.72	1.59	1.39	1.23	1.2	1.37	1.7	2.07	2.32	2.35	2.14	1.79	1.45	1.25	1.22	1.26	1.23	0.98	0.43	-0.35	-1.24	-2.08	-2.72	-3.07	-3.07	-2.75	-2.19	-1.48	-0.75	-0.07	0.51	1.01	1.45	1.79	2
-5.01	-5.27	-5.54	-5.89	-6.32	-6.73	-6.96	-6.87	-6.36	-5.45	-4.25	-2.91	-1.58	-0.4	0.56	1.24	1.66	1.83	1.83	1.72	1.57	1.43	1.32	1.28	1.29	1.37	1.51	1.65	1.73	1.72	1.59	1.39	1.23	1.2	1.37	1.7	2.07	2.32	2.35	2.14	1.79	1.45	1.25	1.22	1.26	1.23	0.98	0.43	-0.35	-1.24	-2.08	-2.72	-3.07	-3.07	-2.75	-2.19	-1.48	-0.75	-0.07	0.51	1.01	1.45	1.79	2	2.04	1.92	1.73	1.58	1.56	1.66	1.78	1.8	1.67	1.45	1.23	1.08	1.04	1.02	0.97	0.84	0.64	0.41	0.21	0.04	-0.08	-0.13	-0.11	0	0.13	0.17	-0.01	-0.48	-1.2	-2.03	-2.77	-3.25	-3.4	-3.23	-2.86	-2.38	-1.82	-1.16	-0.41	0.4	1.18	1.84	2.35	2.77	3.21	3.76	4.37	4.9	5.18	5.12	4.79	4.36	4.01	3.81	3.68	3.5	3.17	2.71	2.25	1.96	1.92	2.09	2.33	2.48
2.04	1.92	1.73	1.58	1.56	1.66	1.78	1.8	1.67	1.45	1.23	1.08	1.04	1.02	0.97	0.84	0.64	0.41	0.21	0.04	-0.08	-0.13	-0.11	0	0.13	0.17	-0.01	-0.48	-1.2	-2.03	-2.77	-3.25	-3.4	-3.23	-2.86	-2.38	-1.82	-1.16	-0.41	0.4	1.18	1.84	2.35	2.77	3.21	3.76	4.37	4.9	5.18	5.12	4.79	4.36	4.01	3.81	3.68	3.5	3.17	2.71	2.25	1.96	1.92	2.09	2.33	2.48	2.41	2.08	1.53	0.84	0.1	-0.6	-1.2	-1.62	-1.88	-1.98	-2.02	-2.09	-2.27	-2.59	-3	-3.4	-3.7	-3.81	-3.74	-3.48	-3.04	-2.43	-1.64	-0.72	0.23	1.1	1.78	2.25	2.55	2.77	2.99	3.22	3.42	3.51	3.46	3.29	3.05	2.78	2.51	2.22	1.94	1.68	1.49	1.41	1.43	1.5	1.51	1.39	1.12	0.78	0.44	0.19	0.01	-0.19	-0.46	-0.82	-1.21	-1.54	-1.71	-1.74	-1.73	-1.81	-2.06	-2.46
2.41	2.08	1.53	0.84	0.1	-0.6	-1.2	-1.62	-1.88	-1.98	-2.02	-2.09	-2.27	-2.59	-3	-3.4	-3.7	-3.81	-3.74	-3.48	-3.04	-2.43	-1.64	-0.72	0.23	1.1	1.78	2.25	2.55	2.77	2.99	3.22	3.42	3.51	3.46	3.29	3.05	2.78	2.51	2.22	1.94	1.68	1.49	1.41	1.43	1.5	1.51	1.39	1.12	0.78	0.44	0.19	0.01	-0.19	-0.46	-0.82	-1.21	-1.54	-1.71	-1.74	-1.73	-1.81	-2.06	-2.46	-2.9	-3.19	-3.19	-2.86	-2.24	-1.43	-0.57	0.24	0.89	1.34	1.57	1.61	1.54	1.43	1.36	1.33	1.32	1.26	1.11	0.89	0.63	0.4	0.25	0.22	0.29	0.44	0.63	0.81	0.9	0.85	0.63	0.27	-0.16	-0.54	-0.76	-0.78	-0.62	-0.38	-0.16	-0.05	-0.11	-0.36	-0.77	-1.28	-1.78	-2.13	-2.22	-1.99	-1.46	-0.74	0.02	0.63	0.97	1.01	0.78	0.41	0.05	-0.18	-0.19	-0	0.31	0.61	0.79	0.83
-2.9	-3.19	-3.19	-2.86	-2.24	-1.43	-0.57	0.24	0.89	1.34	1.57	1.61	1.54	1.43	1.36	1.33	1.32	1.26	1.11	0.89	0.63	0.4	0.25	0.22	0.29	0.44	0.63	0.81	0.9	0.85	0.63	0.27	-0.16	-0.54	-0.76	-0.78	-0.62	-0.38	-0.16	-0.05	-0.11	-0.36	-0.77	-1.28	-1.78	-2.13	-2.22	-1.99	-1.46	-0.74	0.02	0.63	0.97	1.01	0.78	0.41	0.05	-0.18	-0.19	-0	0.31	0.61	0.79	0.83	0.73	0.58	0.45	0.36	0.3	0.24	0.15	0.03	-0.09	-0.19	-0.22	-0.2	-0.14	-0.06	0.05	0.19	0.37	0.54	0.65	0.58	0.29	-0.23	-0.89	-1.55	-2.11	-2.5	-2.74	-2.85	-2.86	-2.72	-2.4	-1.87	-1.19	-0.47	0.15	0.6	0.86	1.01	1.12	1.22	1.29	1.27	1.14	0.9	0.63	0.41	0.35	0.45	0.69	0.96	1.13	1.15	1.01	0.82	0.71	0.75	0.9	1.02	0.93	0.55	-0.06	-0.69	-1.14	-1.32
0.73	0.58	0.45	0.36	0.3	0.24	0.15	0.03	-0.09	-0.19	-0.22	-0.2	-0.14	-0.06	0.05	0.19	0.37	0.54	0.65	0.58	0.29	-0.23	-0.89	-1.55	-2.11	-2.5	-2.74	-2.85	-2.86	-2.72	-2.4	-1.87	-1.19	-0.47	0.15	0.6	0.86	1.01	1.12	1.22	1.29	1.27	1.14	0.9	0.63	0.41	0.35	0.45	0.69	0.96	1.13	1.15	1.01	0.82	0.71	0.75	0.9	1.02	0.93	0.55	-0.06	-0.69	-1.14	-1.32	-1.29	-1.21	-1.19	-1.25	-1.29	-1.21	-1.01	-0.81	-0.79	-1.05	-1.57	-2.15	-2.58	-2.69	-2.46	-1.96	-1.32	-0.64	-0	0.55	0.99	1.28	1.43	1.44	1.35	1.19	1.02	0.9	0.84	0.87	0.94	0.97	0.92	0.76	0.53	0.32	0.22	0.27	0.45	0.68	0.87	0.95	0.89	0.72	0.51	0.32	0.19	0.15	0.16	0.16	0.1	-0.04	-0.22	-0.4	-0.53	-0.59	-0.6	-0.6	-0.65	-0.84	-1.22	-1.77	-2.4	-2.95
-1.29	-1.21	-1.19	-1.25	-1.29	-1.21	-1.01	-0.81	-0.79	-1.05	-1.57	-2.15	-2.58	-2.69	-2.46	-1.96	-1.32	-0.64	-0	0.55	0.99	1.28	1.43	1.44	1.35	1.19	1.02	0.9	0.84	0.87	0.94	0.97	0.92	0.76	0.53	0.32	0.22	0.27	0.45	0.68	0.87	0.95	0.89	0.72	0.51	0.32	0.19	0.15	0.16	0.16	0.1	-0.04	-0.22	-0.4	-0.53	-0.59	-0.6	-0.6	-0.65	-0.84	-1.22	-1.77	-2.4	-2.95	-3.24	-3.16	-2.74	-2.11	-1.49	-1.01	-0.71	-0.49	-0.23	0.17	0.67	1.18	1.58	1.78	1.77	1.62	1.39	1.17	1.01	0.94	0.95	1.03	1.15	1.27	1.36	1.39	1.33	1.19	1	0.8	0.64	0.55	0.54	0.55	0.5	0.37	0.15	-0.07	-0.23	-0.27	-0.21	-0.12	-0.09	-0.14	-0.24	-0.35	-0.47	-0.65	-0.96	-1.43	-1.99	-2.45	-2.65	-2.47	-1.95	-1.26	-0.57	-0.05	0.22	0.28	0.22	0.16	0.21	0.44
-3.24	-3.16	-2.74	-2.11	-1.49	-1.01	-0.71	-0.49	-0.23	0.17	0.67	1.18	1.58	1.78	1.77	1.62	1.39	1.17	1.01	0.94	0.95	1.03	1.15	1.27	1.36	1.39	1.33	1.19	1	0.8	0.64	0.55	0.54	0.55	0.5	0.37	0.15	-0.07	-0.23	-0.27	-0.21	-0.12	-0.09	-0.14	-0.24	-0.35	-0.47	-0.65	-0.96	-1.43	-1.99	-2.45	-2.65	-2.47	-1.95	-1.26	-0.57	-0.05	0.22	0.28	0.22	0.16	0.21	0.44	0.8	1.19	1.41	1.37	1.06	0.61	0.21	0.02	0.05	0.21	0.35	0.4	0.37	0.36	0.45	0.67	0.92	1.07	1.05	0.81	0.45	0.07	-0.21	-0.34	-0.36	-0.34	-0.37	-0.49	-0.68	-0.89	-1.04	-1.13	-1.15	-1.15	-1.17	-1.21	-1.27	-1.27	-1.2	-1.02	-0.73	-0.39	-0.04	0.28	0.54	0.71	0.82	0.9	0.95	0.97	0.97	0.99	1.06	1.21	1.41	1.58	1.62	1.49	1.2	0.86	0.59	0.45	0.46	0.52
0.8	1.19	1.41	1.37	1.06	0.61	0.21	0.02	0.05	0.21	0.35	0.4	0.37	0.36	0.45	0.67	0.92	1.07	1.05	0.81	0.45	0.07	-0.21	-0.34	-0.36	-0.34	-0.37	-0.49	-0.68	-0.89	-1.04	-1.13	-1.15	-1.15	-1.17	-1.21	-1.27	-1.27	-1.2	-1.02	-0.73	-0.39	-0.04	0.28	0.54	0.71	0.82	0.9	0.95	0.97	0.97	0.99	1.06	1.21	1.41	1.58	1.62	1.49	1.2	0.86	0.59	0.45	0.46	0.52	0.58	0.56	0.46	0.27	0.01	-0.33	-0.71	-1.08	-1.37	-1.49	-1.43	-1.22	-0.96	-0.76	-0.67	-0.73	-0.89	-1.12	-1.38	-1.65	-1.88	-2.04	-2.06	-1.88	-1.51	-0.95	-0.3	0.35	0.93	1.39	1.72	1.95	2.09	2.14	2.09	1.92	1.64	1.28	0.9	0.58	0.39	0.38	0.56	0.86	1.18	1.42	1.49	1.36	1.08	0.72	0.35	0.05	-0.19	-0.39	-0.61	-0.87	-1.13	-1.29	-1.29	-1.12	-0.87	-0.69	-0.74	-1.07
0.58	0.56	0.46	0.27	0.01	-0.33	-0.71	-1.08	-1.37	-1.49	-1.43	-1.22	-0.96	-0.76	-0.67	-0.73	-0.89	-1.12	-1.38	-1.65	-1.88	-2.04	-2.06	-1.88	-1.51	-0.95	-0.3	0.35	0.93	1.39	1.72	1.95	2.09	2.14	2.09	1.92	1.64	1.28	0.9	0.58	0.39	0.38	0.56	0.86	1.18	1.42	1.49	1.36	1.08	0.72	0.35	0.05	-0.19	-0.39	-0.61	-0.87	-1.13	-1.29	-1.29	-1.12	-0.87	-0.69	-0.74	-1.07	-1.6	-2.16	-2.52	-2.56	-2.24	-1.66	-0.97	-0.31	0.23	0.65	1.01	1.35	1.71	2.07	2.36	2.53	2.54	2.41	2.14	1.78	1.38	0.95	0.53	0.16	-0.13	-0.26	-0.19	0.06	0.41	0.75	0.98	1.06	1.03	0.97	0.92	0.86	0.71	0.4	-0.05	-0.51	-0.85	-0.93	-0.78	-0.54	-0.37	-0.37	-0.54	-0.79	-1.05	-1.27	-1.47	-1.67	-1.84	-1.9	-1.74	-1.32	-0.68	0.05	0.71	1.18	1.45	1.56	1.58	1.6
-1.6	-2.16	-2.52	-2.56	-2.24	-1.66	-0.97	-0.31	0.23	0.65	1.01	1.35	1.71	2.07	2.36	2.53	2.54	2.41	2.14	1.78	1.38	0.95	0.53	0.16	-0.13	-0.26	-0.19	0.06	0.41	0.75	0.98	1.06	1.03	0.97	0.92	0.86	0.71	0.4	-0.05	-0.51	-0.85	-0.93	-0.78	-0.54	-0.37	-0.37	-0.54	-0.79	-1.05	-1.27	-1.47	-1.67	-1.84	-1.9	-1.74	-1.32	-0.68	0.05	0.71	1.18	1.45	1.56	1.58	1.6	1.62	1.61	1.56	1.44	1.23	0.93	0.57	0.2	-0.09	-0.21	-0.14	0.09	0.37	0.6	0.68	0.61	0.47	0.31	0.18	0.03	-0.19	-0.48	-0.8	-1.04	-1.11	-0.96	-0.66	-0.32	-0.1	-0.11	-0.42	-0.98	-1.67	-2.33	-2.78	-2.87	-2.55	-1.89	-1.07	-0.3	0.29	0.63	0.79	0.86	0.9	0.94	0.95	0.92	0.88	0.88	0.96	1.1	1.22	1.25	1.16	0.97	0.75	0.58	0.51	0.52	0.56	0.59	0.59	0.57
1.62	1.61	1.56	1.44	1.23	0.93	0.57	0.2	-0.09	-0.21	-0.14	0.09	0.37	0.6	0.68	0.61	0.47	0.31	0.18	0.03	-0.19	-0.48	-0.8	-1.04	-1.11	-0.96	-0.66	-0.32	-0.1	-0.11	-0.42	-0.98	-1.67	-2.33	-2.78	-2.87	-2.55	-1.89	-1.07	-0.3	0.29	0.63	0.79	0.86	0.9	0.94	0.95	0.92	0.88	0.88	0.96	1.1	1.22	1.25	1.16	0.97	0.75	0.58	0.51	0.52	0.56	0.59	0.59	0.57	0.52	0.45	0.31	0.07	-0.26	-0.62	-0.93	-1.12	-1.21	-1.28	-1.41	-1.64	-1.92	-2.12	-2.14	-1.99	-1.75	-1.54	-1.38	-1.25	-1	-0.56	0.05	0.71	1.26	1.6	1.7	1.63	1.49	1.36	1.27	1.21	1.17	1.1	0.97	0.77	0.51	0.22	0.01	-0.09	-0.05	0.05	0.13	0.12	0.04	-0.05	-0.05	0.07	0.24	0.36	0.31	-0.01	-0.59	-1.35	-2.15	-2.86	-3.36	-3.6	-3.55	-3.23	-2.69	-1.98	-1.2	-0.46
0.52	0.45	0.31	0.07	-0.26	-0.62	-0.93	-1.12	-1.21	-1.28	-1.41	-1.64	-1.92	-2.12	-2.14	-1.99	-1.75	-1.54	-1.38	-1.25	-1	-0.56	0.05	0.71	1.26	1.6	1.7	1.63	1.49	1.36	1.27	1.21	1.17	1.1	0.97	0.77	0.51	0.22	0.01	-0.09	-0.05	0.05	0.13	0.12	0.04	-0.05	-0.05	0.07	0.24	0.36	0.31	-0.01	-0.59	-1.35	-2.15	-2.86	-3.36	-3.6	-3.55	-3.23	-2.69	-1.98	-1.2	-0.46	0.13	0.52	0.73	0.85	0.98	1.17	1.4	1.55	1.54	1.34	1.03	0.74	0.58	0.57	0.64	0.67	0.62	0.5	0.39	0.35	0.37	0.35	0.22	-0.05	-0.39	-0.67	-0.78	-0.7	-0.5	-0.33	-0.32	-0.56	-1.07	-1.77	-2.53	-3.18	-3.55	-3.52	-3.09	-2.37	-1.53	-0.76	-0.16	0.31	0.72	1.17	1.66	2.09	2.34	2.34	2.11	1.78	1.47	1.26	1.11	0.97	0.77	0.56	0.46	0.57	0.9	1.33	1.65	1.69
0.13	0.52	0.73	0.85	0.98	1.17	1.4	1.55	1.54	1.34	1.03	0.74	0.58	0.57	0.64	0.67	0.62	0.5	0.39	0.35	0.37	0.35	0.22	-0.05	-0.39	-0.67	-0.78	-0.7	-0.5	-0.33	-0.32	-0.56	-1.07	-1.77	-2.53	-3.18	-3.55	-3.52	-3.09	-2.37	-1.53	-0.76	-0.16	0.31	0.72	1.17	1.66	2.09	2.34	2.34	2.11	1.78	1.47	1.26	1.11	0.97	0.77	0.56	0.46	0.57	0.9	1.33	1.65	1.69	1.42	0.95	0.45	0.06	-0.19	-0.38	-0.62	-0.92	-1.25	-1.5	-1.62	-1.62	-1.62	-1.75	-2.08	-2.56	-3.03	-3.33	-3.31	-2.91	-2.17	-1.19	-0.13	0.83	1.57	2.01	2.18	2.17	2.09	2.04	2.06	2.11	2.15	2.12	2	1.8	1.54	1.27	1	0.78	0.65	0.68	0.88	1.25	1.69	2.06	2.17	1.93	1.36	0.62	-0.08	-0.54	-0.7	-0.6	-0.39	-0.22	-0.17	-0.24	-0.39	-0.55	-0.7	-0.85	-1.03	-1.27
1.42	0.95	0.45	0.06	-0.19	-0.38	-0.62	-0.92	-1.25	-1.5	-1.62	-1.62	-1.62	-1.75	-2.08	-2.56	-3.03	-3.33	-3.31	-2.91	-2.17	-1.19	-0.13	0.83	1.57	2.01	2.18	2.17	2.09	2.04	2.06	2.11	2.15	2.12	2	1.8	1.54	1.27	1	0.78	0.65	0.68	0.88	1.25	1.69	2.06	2.17	1.93	1.36	0.62	-0.08	-0.54	-0.7	-0.6	-0.39	-0.22	-0.17	-0.24	-0.39	-0.55	-0.7	-0.85	-1.03	-1.27	-1.56	-1.87	-2.15	-2.37	-2.56	-2.73	-2.88	-2.92	-2.76	-2.32	-1.64	-0.83	-0.09	0.46	0.78	0.98	1.15	1.34	1.53	1.64	1.68	1.69	1.75	1.88	2.02	2.06	1.9	1.57	1.17	0.88	0.8	0.92	1.13	1.29	1.31	1.2	0.99	0.79	0.63	0.56	0.56	0.64	0.79	0.99	1.2	1.3	1.21	0.88	0.35	-0.24	-0.75	-1.05	-1.1	-0.98	-0.81	-0.71	-0.76	-0.95	-1.24	-1.55	-1.83	-2.05	-2.18	-2.17
-1.56	-1.87	-2.15	-2.37	-2.56	-2.73	-2.88	-2.92	-2.76	-2.32	-1.64	-0.83	-0.09	0.46	0.78	0.98	1.15	1.34	1.53	1.64	1.68	1.69	1.75	1.88	2.02	2.06	1.9	1.57	1.17	0.88	0.8	0.92	1.13	1.29	1.31	1.2	0.99	0.79	0.63	0.56	0.56	0.64	0.79	0.99	1.2	1.3	1.21	0.88	0.35	-0.24	-0.75	-1.05	-1.1	-0.98	-0.81	-0.71	-0.76	-0.95	-1.24	-1.55	-1.83	-2.05	-2.18	-2.17	-2.02	-1.7	-1.23	-0.65	-0.03	0.53	0.96	1.21	1.3	1.33	1.39	1.58	1.92	2.31	2.6	2.63	2.33	1.74	1.01	0.31	-0.23	-0.53	-0.58	-0.42	-0.11	0.27	0.61	0.81	0.81	0.61	0.25	-0.13	-0.41	-0.52	-0.45	-0.3	-0.19	-0.22	-0.4	-0.66	-0.89	-1	-0.99	-0.95	-1.01	-1.23	-1.6	-2	-2.27	-2.28	-1.99	-1.44	-0.72	0.05	0.75	1.28	1.56	1.56	1.33	0.98	0.59	0.25	-0.04	-0.3
-2.02	-1.7	-1.23	-0.65	-0.03	0.53	0.96	1.21	1.3	1.33	1.39	1.58	1.92	2.31	2.6	2.63	2.33	1.74	1.01	0.31	-0.23	-0.53	-0.58	-0.42	-0.11	0.27	0.61	0.81	0.81	0.61	0.25	-0.13	-0.41	-0.52	-0.45	-0.3	-0.19	-0.22	-0.4	-0.66	-0.89	-1	-0.99	-0.95	-1.01	-1.23	-1.6	-2	-2.27	-2.28	-1.99	-1.44	-0.72	0.05	0.75	1.28	1.56	1.56	1.33	0.98	0.59	0.25	-0.04	-0.3	-0.53	-0.72	-0.84	-0.85	-0.77	-0.62	-0.47	-0.34	-0.23	-0.11	0.04	0.21	0.37	0.47	0.45	0.33	0.17	0.05	0.07	0.24	0.51	0.76	0.92	0.93	0.81	0.6	0.35	0.1	-0.14	-0.32	-0.43	-0.49	-0.53	-0.64	-0.83	-1.09	-1.3	-1.37	-1.24	-0.93	-0.54	-0.17	0.12	0.33	0.48	0.6	0.71	0.81	0.91	1.02	1.11	1.12	1.01	0.77	0.48	0.25	0.22	0.42	0.79	1.16	1.38	1.34	1.01	0.51
-0.53	-0.72	-0.84	-0.85	-0.77	-0.62	-0.47	-0.34	-0.23	-0.11	0.04	0.21	0.37	0.47	0.45	0.33	0.17	0.05	0.07	0.24	0.51	0.76	0.92	0.93	0.81	0.6	0.35	0.1	-0.14	-0.32	-0.43	-0.49	-0.53	-0.64	-0.83	-1.09	-1.3	-1.37	-1.24	-0.93	-0.54	-0.17	0.12	0.33	0.48	0.6	0.71	0.81	0.91	1.02	1.11	1.12	1.01	0.77	0.48	0.25	0.22	0.42	0.79	1.16	1.38	1.34	1.01	0.51	-0.03	-0.48	-0.75	-0.79	-0.63	-0.31	0.05	0.36	0.5	0.45	0.24	-0.06	-0.36	-0.59	-0.73	-0.78	-0.77	-0.74	-0.72	-0.77	-0.92	-1.2	-1.55	-1.88	-2.07	-2.04	-1.77	-1.29	-0.72	-0.18	0.25	0.54	0.71	0.82	0.94	1.08	1.21	1.27	1.21	1.02	0.79	0.6	0.52	0.59	0.74	0.89	0.98	0.96	0.85	0.68	0.47	0.27	0.09	-0.06	-0.17	-0.24	-0.29	-0.34	-0.39	-0.46	-0.52	-0.59	-0.65	-0.72
-0.03	-0.48	-0.75	-0.79	-0.63	-0.31	0.05	0.36	0.5	0.45	0.24	-0.06	-0.36	-0.59	-0.73	-0.78	-0.77	-0.74	-0.72	-0.77	-0.92	-1.2	-1.55	-1.88	-2.07	-2.04	-1.77	-1.29	-0.72	-0.18	0.25	0.54	0.71	0.82	0.94	1.08	1.21	1.27	1.21	1.02	0.79	0.6	0.52	0.59	0.74	0.89	0.98	0.96	0.85	0.68	0.47	0.27	0.09	-0.06	-0.17	-0.24	-0.29	-0.34	-0.39	-0.46	-0.52	-0.59	-0.65	-0.72	-0.82	-0.92	-0.99	-1.02	-0.98	-0.92	-0.92	-1.05	-1.36	-1.81	-2.26	-2.52	-2.48	-2.11	-1.53	-0.92	-0.41	-0.07	0.12	0.24	0.33	0.43	0.51	0.58	0.64	0.73	0.88	1.09	1.29	1.42	1.44	1.33	1.13	0.91	0.75	0.67	0.68	0.71	0.72	0.67	0.54	0.38	0.17	-0.06	-0.29	-0.49	-0.58	-0.51	-0.28	0.05	0.34	0.45	0.32	-0.04	-0.52	-1	-1.38	-1.63	-1.8	-1.97	-2.22	-2.53	-2.82	-2.94
-0.82	-0.92	-0.99	-1.02	-0.98	-0.92	-0.92	-1.05	-1.36	-1.81	-2.26	-2.52	-2.48	-2.11	-1.53	-0.92	-0.41	-0.07	0.12	0.24	0.33	0.43	0.51	0.58	0.64	0.73	0.88	1.09	1.29	1.42	1.44	1.33	1.13	0.91	0.75	0.67	0.68	0.71	0.72	0.67	0.54	0.38	0.17	-0.06	-0.29	-0.49	-0.58	-0.51	-0.28	0.05	0.34	0.45	0.32	-0.04	-0.52	-1	-1.38	-1.63	-1.8	-1.97	-2.22	-2.53	-2.82	-2.94	-2.75	-2.17	-1.28	-0.25	0.67	1.3	1.59	1.6	1.49	1.38	1.28	1.15	0.91	0.59	0.27	0.1	0.17	0.46	0.84	1.12	1.19	1.02	0.72	0.45	0.29	0.26	0.29	0.28	0.2	0.02	-0.18	-0.35	-0.48	-0.57	-0.66	-0.75	-0.79	-0.75	-0.63	-0.5	-0.5	-0.73	-1.21	-1.8	-2.28	-2.48	-2.32	-1.92	-1.46	-1.08	-0.77	-0.42	0.11	0.82	1.57	2.14	2.37	2.23	1.88	1.51	1.23	1.06	0.94	0.8
-2.75	-2.17	-1.28	-0.25	0.67	1.3	1.59	1.6	1.49	1.38	1.28	1.15	0.91	0.59	0.27	0.1	0.17	0.46	0.84	1.12	1.19	1.02	0.72	0.45	0.29	0.26	0.29	0.28	0.2	0.02	-0.18	-0.35	-0.48	-0.57	-0.66	-0.75	-0.79	-0.75	-0.63	-0.5	-0.5	-0.73	-1.21	-1.8	-2.28	-2.48	-2.32	-1.92	-1.46	-1.08	-0.77	-0.42	0.11	0.82	1.57	2.14	2.37	2.23	1.88	1.51	1.23	1.06	0.94	0.8	0.63	0.5	0.46	0.52	0.62	0.68	0.66	0.6	0.54	0.51	0.52	0.48	0.37	0.16	-0.06	-0.24	-0.3	-0.26	-0.14	-0.03	0.02	-0.06	-0.26	-0.61	-1.08	-1.64	-2.22	-2.73	-3.05	-3.12	-2.85	-2.3	-1.53	-0.7	0.07	0.65	1.02	1.22	1.33	1.42	1.54	1.67	1.77	1.78	1.69	1.51	1.32	1.15	1.03	0.96	0.93	0.92	0.95	0.99	1.03	1	0.87	0.63	0.32	0.04	-0.12	-0.18	-0.18	-0.2
0.63	0.5	0.46	0.52	0.62	0.68	0.66	0.6	0.54	0.51	0.52	0.48	0.37	0.16	-0.06	-0.24	-0.3	-0.26	-0.14	-0.03	0.02	-0.06	-0.26	-0.61	-1.08	-1.64	-2.22	-2.73	-3.05	-3.12	-2.85	-2.3	-1.53	-0.7	0.07	0.65	1.02	1.22	1.33	1.42	1.54	1.67	1.77	1.78	1.69	1.51	1.32	1.15	1.03	0.96	0.93	0.92	0.95	0.99	1.03	1	0.87	0.63	0.32	0.04	-0.12	-0.18	-0.18	-0.2	-0.33	-0.54	-0.76	-0.92	-0.94	-0.83	-0.66	-0.5	-0.45	-0.57	-0.86	-1.29	-1.78	-2.24	-2.59	-2.78	-2.76	-2.54	-2.12	-1.54	-0.86	-0.14	0.55	1.16	1.62	1.92	2.04	2	1.85	1.63	1.43	1.3	1.26	1.32	1.45	1.61	1.75	1.84	1.82	1.64	1.3	0.86	0.43	0.15	0.08	0.2	0.41	0.57	0.57	0.4	0.16	-0.06	-0.2	-0.32	-0.49	-0.78	-1.15	-1.53	-1.84	-2.08	-2.34	-2.73	-3.23	-3.69
-0.33	-0.54	-0.76	-0.92	-0.94	-0.83	-0.66	-0.5	-0.45	-0.57	-0.86	-1.29	-1.78	-2.24	-2.59	-2.78	-2.76	-2.54	-2.12	-1.54	-0.86	-0.14	0.55	1.16	1.62	1.92	2.04	2	1.85	1.63	1.43	1.3	1.26	1.32	1.45	1.61	1.75	1.84	1.82	1.64	1.3	0.86	0.43	0.15	0.08	0.2	0.41	0.57	0.57	0.4	0.16	-0.06	-0.2	-0.32	-0.49	-0.78	-1.15	-1.53	-1.84	-2.08	-2.34	-2.73	-3.23	-3.69	-3.87	-3.51	-2.56	-1.15	0.38	1.69	2.52	2.8	2.65	2.28	1.88	1.59	1.44	1.4	1.4	1.38	1.31	1.2	1.07	0.94	0.83	0.75	0.71	0.7	0.71	0.73	0.75	0.76	0.78	0.83	0.91	0.98	0.96	0.77	0.4	-0.1	-0.64	-1.09	-1.42	-1.67	-1.92	-2.24	-2.62	-2.99	-3.27	-3.4	-3.35	-3.14	-2.77	-2.23	-1.54	-0.77	-0.02	0.56	0.89	0.98	0.92	0.87	0.89	1.02	1.21	1.39	1.55	1.68
-3.87	-3.51	-2.56	-1.15	0.38	1.69	2.52	2.8	2.65	2.28	1.88	1.59	1.44	1.4	1.4	1.38	1.31	1.2	1.07	0.94	0.83	0.75	0.71	0.7	0.71	0.73	0.75	0.76	0.78	0.83	0.91	0.98	0.96	0.77	0.4	-0.1	-0.64	-1.09	-1.42	-1.67	-1.92	-2.24	-2.62	-2.99	-3.27	-3.4	-3.35	-3.14	-2.77	-2.23	-1.54	-0.77	-0.02	0.56	0.89	0.98	0.92	0.87	0.89	1.02	1.21	1.39	1.55	1.68	1.76	1.79	1.76	1.63	1.43	1.18	0.96	0.84	0.83	0.92	1.03	1.06	0.94	0.67	0.28	-0.11	-0.41	-0.56	-0.6	-0.62	-0.74	-1.04	-1.5	-2.03	-2.49	-2.8	-2.9	-2.81	-2.55	-2.17	-1.68	-1.06	-0.36	0.37	1.05	1.55	1.8	1.79	1.57	1.24	0.91	0.61	0.34	0.08	-0.16	-0.33	-0.33	-0.1	0.35	0.91	1.4	1.66	1.64	1.4	1.06	0.73	0.46	0.26	0.07	-0.13	-0.33	-0.49	-0.6	-0.66
1.76	1.79	1.76	1.63	1.43	1.18	0.96	0.84	0.83	0.92	1.03	1.06	0.94	0.67	0.28	-0.11	-0.41	-0.56	-0.6	-0.62	-0.74	-1.04	-1.5	-2.03	-2.49	-2.8	-2.9	-2.81	-2.55	-2.17	-1.68	-1.06	-0.36	0.37	1.05	1.55	1.8	1.79	1.57	1.24	0.91	0.61	0.34	0.08	-0.16	-0.33	-0.33	-0.1	0.35	0.91	1.4	1.66	1.64	1.4	1.06	0.73	0.46	0.26	0.07	-0.13	-0.33	-0.49	-0.6	-0.66	-0.76	-0.96	-1.31	-1.79	-2.33	-2.8	-3.12	-3.21	-3.08	-2.77	-2.3	-1.7	-0.99	-0.21	0.57	1.26	1.78	2.11	2.28	2.37	2.42	2.42	2.31	2.03	1.57	1.06	0.67	0.54	0.71	1.09	1.5	1.77	1.84	1.75	1.57	1.36	1.09	0.71	0.17	-0.44	-0.97	-1.28	-1.29	-1.04	-0.69	-0.4	-0.25	-0.22	-0.29	-0.47	-0.86	-1.51	-2.39	-3.31	-3.97	-4.13	-3.73	-2.92	-2.01	-1.24	-0.71	-0.34	0.06	0.6
-0.76	-0.96	-1.31	-1.79	-2.33	-2.8	-3.12	-3.21	-3.08	-2.77	-2.3	-1.7	-0.99	-0.21	0.57	1.26	1.78	2.11	2.28	2.37	2.42	2.42	2.31	2.03	1.57	1.06	0.67	0.54	0.71	1.09	1.5	1.77	1.84	1.75	1.57	1.36	1.09	0.71	0.17	-0.44	-0.97	-1.28	-1.29	-1.04	-0.69	-0.4	-0.25	-0.22	-0.29	-0.47	-0.86	-1.51	-2.39	-3.31	-3.97	-4.13	-3.73	-2.92	-2.01	-1.24	-0.71	-0.34	0.06	0.6	1.25	1.88	2.33	2.52	2.45	2.25	2.03	1.86	1.76	1.7	1.63	1.53	1.44	1.37	1.33	1.29	1.22	1.12	0.99	0.88	0.82	0.82	0.84	0.83	0.74	0.5	0.12	-0.37	-0.86	-1.24	-1.43	-1.42	-1.27	-1.14	-1.2	-1.56	-2.2	-3.01	-3.8	-4.41	-4.73	-4.74	-4.45	-3.94	-3.23	-2.39	-1.48	-0.57	0.31	1.13	1.89	2.6	3.22	3.67	3.82	3.59	3.01	2.23	1.5	1.03	0.89	0.99	1.11	1.07
1.25	1.88	2.33	2.52	2.45	2.25	2.03	1.86	1.76	1.7	1.63	1.53	1.44	1.37	1.33	1.29	1.22	1.12	0.99	0.88	0.82	0.82	0.84	0.83	0.74	0.5	0.12	-0.37	-0.86	-1.24	-1.43	-1.42	-1.27	-1.14	-1.2	-1.56	-2.2	-3.01	-3.8	-4.41	-4.73	-4.74	-4.45	-3.94	-3.23	-2.39	-1.48	-0.57	0.31	1.13	1.89	2.6	3.22	3.67	3.82	3.59	3.01	2.23	1.5	1.03	0.89	0.99	1.11	1.07	0.81	0.41	0.06	-0.08	0.05	0.33	0.61	0.74	0.71	0.6	0.53	0.57	0.68	0.74	0.64	0.4	0.08	-0.18	-0.33	-0.38	-0.43	-0.55	-0.74	-0.98	-1.19	-1.36	-1.49	-1.61	-1.7	-1.66	-1.4	-0.85	-0.05	0.91	1.84	2.6	3.07	3.22	3.1	2.82	2.5	2.26	2.16	2.15	2.21	2.28	2.37	2.53	2.77	3.07	3.33	3.44	3.36	3.1	2.77	2.44	2.17	1.88	1.5	0.95	0.22	-0.6	-1.39	-2.01
0.81	0.41	0.06	-0.08	0.05	0.33	0.61	0.74	0.71	0.6	0.53	0.57	0.68	0.74	0.64	0.4	0.08	-0.18	-0.33	-0.38	-0.43	-0.55	-0.74	-0.98	-1.19	-1.36	-1.49	-1.61	-1.7	-1.66	-1.4	-0.85	-0.05	0.91	1.84	2.6	3.07	3.22	3.1	2.82	2.5	2.26	2.16	2.15	2.21	2.28	2.37	2.53	2.77	3.07	3.33	3.44	3.36	3.1	2.77	2.44	2.17	1.88	1.5	0.95	0.22	-0.6	-1.39	-2.01	-2.4	-2.57	-2.58	-2.56	-2.62	-2.84	-3.23	-3.75	-4.32	-4.81	-5.11	-5.16	-4.92	-4.4	-3.65	-2.76	-1.83	-0.98	-0.33	0.07	0.23	0.26	0.26	0.31	0.45	0.63	0.78	0.87	0.91	0.94	1	1.06	1.09	1.03	0.91	0.77	0.73	0.82	1.02	1.21	1.26	1.09	0.75	0.36	0.04	-0.1	-0.11	-0.1	-0.21	-0.51	-1	-1.63	-2.28	-2.87	-3.35	-3.67	-3.76	-3.55	-3.02	-2.21	-1.22	-0.17	0.85	1.76
-2.4	-2.57	-2.58	-2.56	-2.62	-2.84	-3.23	-3.75	-4.32	-4.81	-5.11	-5.16	-4.92	-4.4	-3.65	-2.76	-1.83	-0.98	-0.33	0.07	0.23	0.26	0.26	0.31	0.45	0.63	0.78	0.87	0.91	0.94	1	1.06	1.09	1.03	0.91	0.77	0.73	0.82	1.02	1.21	1.26	1.09	0.75	0.36	0.04	-0.1	-0.11	-0.1	-0.21	-0.51	-1	-1.63	-2.28	-2.87	-3.35	-3.67	-3.76	-3.55	-3.02	-2.21	-1.22	-0.17	0.85	1.76	2.55	3.2	3.65	3.83	3.67	3.18	2.5	1.8	1.28	1.02	0.96	1.01	1.04	0.99	0.89	0.79	0.75	0.74	0.75	0.72	0.64	0.52	0.38	0.24	0.05	-0.19	-0.52	-0.92	-1.36	-1.81	-2.23	-2.61	-2.96	-3.27	-3.51	-3.61	-3.49	-3.11	-2.46	-1.63	-0.73	0.13	0.87	1.5	2.04	2.48	2.78	2.85	2.62	2.13	1.51	0.96	0.66	0.66	0.91	1.23	1.45	1.49	1.35	1.14	0.97	0.9	0.91	0.91
2.55	3.2	3.65	3.83	3.67	3.18	2.5	1.8	1.28	1.02	0.96	1.01	1.04	0.99	0.89	0.79	0.75	0.74	0.75	0.72	0.64	0.52	0.38	0.24	0.05	-0.19	-0.52	-0.92	-1.36	-1.81	-2.23	-2.61	-2.96	-3.27	-3.51	-3.61	-3.49	-3.11	-2.46	-1.63	-0.73	0.13	0.87	1.5	2.04	2.48	2.78	2.85	2.62	2.13	1.51	0.96	0.66	0.66	0.91	1.23	1.45	1.49	1.35	1.14	0.97	0.9	0.91	0.91	0.81	0.58	0.25	-0.13	-0.47	-0.7	-0.85	-0.96	-1.09	-1.28	-1.5	-1.7	-1.88	-2.07	-2.32	-2.66	-3.06	-3.4	-3.52	-3.3	-2.74	-1.93	-1.01	-0.14	0.59	1.2	1.73	2.23	2.7	3.06	3.17	2.95	2.42	1.71	1.07	0.7	0.68	0.94	1.3	1.58	1.62	1.43	1.08	0.71	0.39	0.13	-0.08	-0.3	-0.52	-0.7	-0.78	-0.73	-0.56	-0.39	-0.31	-0.39	-0.64	-1	-1.38	-1.74	-2.06	-2.34	-2.56	-2.7
0.81	0.58	0.25	-0.13	-0.47	-0.7	-0.85	-0.96	-1.09	-1.28	-1.5	-1.7	-1.88	-2.07	-2.32	-2.66	-3.06	-3.4	-3.52	-3.3	-2.74	-1.93	-1.01	-0.14	0.59	1.2	1.73	2.23	2.7	3.06	3.17	2.95	2.42	1.71	1.07	0.7	0.68	0.94	1.3	1.58	1.62	1.43	1.08	0.71	0.39	0.13	-0.08	-0.3	-0.52	-0.7	-0.78	-0.73	-0.56	-0.39	-0.31	-0.39	-0.64	-1	-1.38	-1.74	-2.06	-2.34	-2.56	-2.7	-2.72	-2.62	-2.38	-2.04	-1.6	-1.06	-0.41	0.3	0.98	1.53	1.86	1.98	1.93	1.81	1.69	1.59	1.5	1.42	1.33	1.26	1.22	1.25	1.34	1.43	1.5	1.48	1.35	1.1	0.75	0.36	-0.01	-0.25	-0.31	-0.19	0.03	0.24	0.3	0.14	-0.21	-0.65	-1.04	-1.29	-1.4	-1.48	-1.63	-1.94	-2.4	-2.9	-3.31	-3.51	-3.46	-3.18	-2.7	-2.1	-1.39	-0.6	0.24	1.06	1.78	2.29	2.56	2.58	2.4	2.1
-2.72	-2.62	-2.38	-2.04	-1.6	-1.06	-0.41	0.3	0.98	1.53	1.86	1.98	1.93	1.81	1.69	1.59	1.5	1.42	1.33	1.26	1.22	1.25	1.34	1.43	1.5	1.48	1.35	1.1	0.75	0.36	-0.01	-0.25	-0.31	-0.19	0.03	0.24	0.3	0.14	-0.21	-0.65	-1.04	-1.29	-1.4	-1.48	-1.63	-1.94	-2.4	-2.9	-3.31	-3.51	-3.46	-3.18	-2.7	-2.1	-1.39	-0.6	0.24	1.06	1.78	2.29	2.56	2.58	2.4	2.1	1.76	1.43	1.17	0.99	0.9	0.91	0.96	1.01	0.98	0.83	0.58	0.27	-0.03	-0.23	-0.32	-0.3	-0.21	-0.1	0	0.08	0.09	-0.01	-0.28	-0.73	-1.31	-1.91	-2.42	-2.76	-2.97	-3.09	-3.17	-3.22	-3.17	-2.95	-2.54	-1.99	-1.39	-0.84	-0.36	0.12	0.69	1.36	2.06	2.64	2.95	2.91	2.59	2.15	1.74	1.45	1.23	1	0.68	0.3	-0.02	-0.13	0.03	0.4	0.81	1.08	1.11	0.93	0.66	0.45
1.76	1.43	1.17	0.99	0.9	0.91	0.96	1.01	0.98	0.83	0.58	0.27	-0.03	-0.23	-0.32	-0.3	-0.21	-0.1	0	0.08	0.09	-0.01	-0.28	-0.73	-1.31	-1.91	-2.42	-2.76	-2.97	-3.09	-3.17	-3.22	-3.17	-2.95	-2.54	-1.99	-1.39	-0.84	-0.36	0.12	0.69	1.36	2.06	2.64	2.95	2.91	2.59	2.15	1.74	1.45	1.23	1	0.68	0.3	-0.02	-0.13	0.03	0.4	0.81	1.08	1.11	0.93	0.66	0.45	0.33	0.29	0.22	0.04	-0.28	-0.67	-1.07	-1.46	-1.86	-2.33	-2.9	-3.51	-4.01	-4.23	-4.07	-3.49	-2.58	-1.48	-0.37	0.64	1.5	2.2	2.71	3	3.02	2.74	2.21	1.59	1.06	0.79	0.85	1.17	1.59	1.93	2.1	2.07	1.89	1.62	1.31	0.99	0.69	0.46	0.33	0.31	0.36	0.38	0.3	0.05	-0.35	-0.83	-1.32	-1.79	-2.26	-2.77	-3.33	-3.89	-4.29	-4.4	-4.13	-3.51	-2.67	-1.75	-0.85	-0.01
0.33	0.29	0.22	0.04	-0.28	-0.67	-1.07	-1.46	-1.86	-2.33	-2.9	-3.51	-4.01	-4.23	-4.07	-3.49	-2.58	-1.48	-0.37	0.64	1.5	2.2	2.71	3	3.02	2.74	2.21	1.59	1.06	0.79	0.85	1.17	1.59	1.93	2.1	2.07	1.89	1.62	1.31	0.99	0.69	0.46	0.33	0.31	0.36	0.38	0.3	0.05	-0.35	-0.83	-1.32	-1.79	-2.26	-2.77	-3.33	-3.89	-4.29	-4.4	-4.13	-3.51	-2.67	-1.75	-0.85	-0.01	0.78	1.52	2.14	2.55	2.68	2.54	2.22	1.84	1.48	1.13	0.75	0.36	-0.01	-0.27	-0.32	-0.19	0.05	0.29	0.44	0.52	0.57	0.66	0.77	0.86	0.87	0.74	0.51	0.22	-0.07	-0.36	-0.67	-1.03	-1.47	-1.98	-2.54	-3.09	-3.57	-3.89	-3.99	-3.82	-3.35	-2.58	-1.55	-0.39	0.79	1.84	2.66	3.23	3.56	3.74	3.84	3.89	3.89	3.81	3.62	3.29	2.85	2.35	1.87	1.49	1.28	1.21	1.27	1.36
0.78	1.52	2.14	2.55	2.68	2.54	2.22	1.84	1.48	1.13	0.75	0.36	-0.01	-0.27	-0.32	-0.19	0.05	0.29	0.44	0.52	0.57	0.66	0.77	0.86	0.87	0.74	0.51	0.22	-0.07	-0.36	-0.67	-1.03	-1.47	-1.98	-2.54	-3.09	-3.57	-3.89	-3.99	-3.82	-3.35	-2.58	-1.55	-0.39	0.79	1.84	2.66	3.23	3.56	3.74	3.84	3.89	3.89	3.81	3.62	3.29	2.85	2.35	1.87	1.49	1.28	1.21	1.27	1.36	1.42	1.41	1.37	1.3	1.24	1.18	1.08	0.91	0.68	0.46	0.3	0.28	0.39	0.6	0.85	1.06	1.18	1.18	1.04	0.73	0.28	-0.26	-0.74	-1.04	-1.02	-0.63	0.07	0.94	1.77	2.36	2.6	2.47	2.07	1.56	1.05	0.58	0.09	-0.56	-1.45	-2.6	-3.92	-5.25	-6.43	-7.36	-7.96	-8.22	-8.13	-7.71	-7.03	-6.19	-5.28	-4.39	-3.55	-2.73	-1.89	-0.99	-0.05	0.85	1.62	2.2	2.53	2.59	2.34	1.78
1.42	1.41	1.37	1.3	1.24	1.18	1.08	0.91	0.68	0.46	0.3	0.28	0.39	0.6	0.85	1.06	1.18	1.18	1.04	0.73	0.28	-0.26	-0.74	-1.04	-1.02	-0.63	0.07	0.94	1.77	2.36	2.6	2.47	2.07	1.56	1.05	0.58	0.09	-0.56	-1.45	-2.6	-3.92	-5.25	-6.43	-7.36	-7.96	-8.22	-8.13	-7.71	-7.03	-6.19	-5.28	-4.39	-3.55	-2.73	-1.89	-0.99	-0.05	0.85	1.62	2.2	2.53	2.59	2.34	1.78	0.89	-0.3	-1.7	-3.12	-4.32	-5.08	-5.26	-4.86	-4	-2.85	-1.57	-0.23	1.12	2.42	3.57	4.45	4.97	5.09	4.92	4.6	4.26	3.98	3.73	3.46	3.13	2.68	2.13	1.52	0.91	0.37	-0.03	-0.27	-0.37	-0.45	-0.62	-0.98	-1.5	-2.07	-2.5	-2.68	-2.58	-2.33	-2.1	-2.05	-2.21	-2.52	-2.84	-3.05	-3.12	-3.08	-3	-2.92	-2.78	-2.46	-1.84	-0.89	0.29	1.5	2.54	3.23	3.56	3.61	3.54	3.5
0.89	-0.3	-1.7	-3.12	-4.32	-5.08	-5.26	-4.86	-4	-2.85	-1.57	-0.23	1.12	2.42	3.57	4.45	4.97	5.09	4.92	4.6	4.26	3.98	3.73	3.46	3.13	2.68	2.13	1.52	0.91	0.37	-0.03	-0.27	-0.37	-0.45	-0.62	-0.98	-1.5	-2.07	-2.5	-2.68	-2.58	-2.33	-2.1	-2.05	-2.21	-2.52	-2.84	-3.05	-3.12	-3.08	-3	-2.92	-2.78	-2.46	-1.84	-0.89	0.29	1.5	2.54	3.23	3.56	3.61	3.54	3.5	3.6	3.85	4.22	4.57	4.77	4.69	4.32	3.7	3.02	2.48	2.25	2.33	2.63	2.95	3.11	3.04	2.76	2.37	1.91	1.37	0.69	-0.17	-1.18	-2.18	-3.01	-3.53	-3.73	-3.67	-3.47	-3.17	-2.78	-2.25	-1.56	-0.76	0.07	0.84	1.47	1.91	2.1	2.02	1.69	1.2	0.7	0.36	0.26	0.39	0.61	0.73	0.64	0.33	-0.08	-0.44	-0.61	-0.54	-0.29	0.03	0.31	0.53	0.68	0.77	0.75	0.58	0.2	-0.35
3.6	3.85	4.22	4.57	4.77	4.69	4.32	3.7	3.02	2.48	2.25	2.33	2.63	2.95	3.11	3.04	2.76	2.37	1.91	1.37	0.69	-0.17	-1.18	-2.18	-3.01	-3.53	-3.73	-3.67	-3.47	-3.17	-2.78	-2.25	-1.56	-0.76	0.07	0.84	1.47	1.91	2.1	2.02	1.69	1.2	0.7	0.36	0.26	0.39	0.61	0.73	0.64	0.33	-0.08	-0.44	-0.61	-0.54	-0.29	0.03	0.31	0.53	0.68	0.77	0.75	0.58	0.2	-0.35	-0.94	-1.41	-1.6	-1.47	-1.06	-0.47	0.21	0.97	1.8	2.7	3.58	4.33	4.84	5.05	4.99	4.75	4.4	3.98	3.47	2.85	2.11	1.31	0.53	-0.16	-0.71	-1.11	-1.37	-1.54	-1.65	-1.7	-1.7	-1.64	-1.52	-1.38	-1.31	-1.42	-1.8	-2.5	-3.47	-4.57	-5.59	-6.29	-6.55	-6.33	-5.73	-4.88	-3.92	-2.93	-1.95	-1.01	-0.15	0.55	1.02	1.22	1.23	1.18	1.17	1.23	1.32	1.31	1.09	0.65	0.09	-0.4
-0.94	-1.41	-1.6	-1.47	-1.06	-0.47	0.21	0.97	1.8	2.7	3.58	4.33	4.84	5.05	4.99	4.75	4.4	3.98	3.47	2.85	2.11	1.31	0.53	-0.16	-0.71	-1.11	-1.37	-1.54	-1.65	-1.7	-1.7	-1.64	-1.52	-1.38	-1.31	-1.42	-1.8	-2.5	-3.47	-4.57	-5.59	-6.29	-6.55	-6.33	-5.73	-4.88	-3.92	-2.93	-1.95	-1.01	-0.15	0.55	1.02	1.22	1.23	1.18	1.17	1.23	1.32	1.31	1.09	0.65	0.09	-0.4	-0.66	-0.58	-0.19	0.39	0.97	1.41	1.64	1.67	1.53	1.3	1.01	0.64	0.18	-0.38	-1	-1.65	-2.26	-2.77	-3.12	-3.27	-3.17	-2.78	-2.09	-1.15	-0.05	1.04	1.93	2.49	2.69	2.59	2.38	2.19	2.12	2.12	2.11	2.05	1.95	1.93	2.05	2.28	2.48	2.47	2.16	1.61	1.01	0.58	0.45	0.56	0.8	0.98	1.02	0.91	0.71	0.49	0.28	0.06	-0.2	-0.56	-1.05	-1.68	-2.38	-3.08	-3.65	-3.99
-0.66	-0.58	-0.19	0.39	0.97	1.41	1.64	1.67	1.53	1.3	1.01	0.64	0.18	-0.38	-1	-1.65	-2.26	-2.77	-3.12	-3.27	-3.17	-2.78	-2.09	-1.15	-0.05	1.04	1.93	2.49	2.69	2.59	2.38	2.19	2.12	2.12	2.11	2.05	1.95	1.93	2.05	2.28	2.48	2.47	2.16	1.61	1.01	0.58	0.45	0.56	0.8	0.98	1.02	0.91	0.71	0.49	0.28	0.06	-0.2	-0.56	-1.05	-1.68	-2.38	-3.08	-3.65	-3.99	-3.98	-3.58	-2.85	-1.89	-0.87	0.06	0.79	1.29	1.57	1.69	1.71	1.68	1.6	1.43	1.16	0.79	0.43	0.16	0.08	0.19	0.41	0.6	0.68	0.61	0.46	0.32	0.23	0.16	0.1	0.02	-0.02	0.01	0.14	0.3	0.4	0.31	-0.01	-0.53	-1.19	-1.9	-2.59	-3.18	-3.57	-3.68	-3.44	-2.89	-2.14	-1.38	-0.73	-0.24	0.15	0.53	0.96	1.41	1.79	1.99	1.96	1.75	1.46	1.17	0.91	0.66	0.42	0.22
-3.98	-3.58	-2.85	-1.89	-0.87	0.06	0.79	1.29	1.57	1.69	1.71	1.68	1.6	1.43	1.16	0.79	0.43	0.16	0.08	0.19	0.41	0.6	0.68	0.61	0.46	0.32	0.23	0.16	0.1	0.02	-0.02	0.01	0.14	0.3	0.4	0.31	-0.01	-0.53	-1.19	-1.9	-2.59	-3.18	-3.57	-3.68	-3.44	-2.89	-2.14	-1.38	-0.73	-0.24	0.15	0.53	0.96	1.41	1.79	1.99	1.96	1.75	1.46	1.17	0.91	0.66	0.42	0.22	0.13	0.19	0.39	0.63	0.76	0.72	0.51	0.25	0.09	0.13	0.37	0.68	0.91	0.93	0.67	0.13	-0.61	-1.45	-2.3	-3.1	-3.76	-4.21	-4.38	-4.18	-3.57	-2.62	-1.46	-0.3	0.69	1.41	1.85	2.12	2.29	2.4	2.4	2.22	1.84	1.32	0.83	0.52	0.48	0.68	1	1.3	1.49	1.56	1.6	1.66	1.75	1.83	1.84	1.74	1.51	1.22	0.91	0.62	0.36	0.07	-0.32	-0.86	-1.55	-2.28	-2.85	-3.06
0.13	0.19	0.39	0.63	0.76	0.72	0.51	0.25	0.09	0.13	0.37	0.68	0.91	0.93	0.67	0.13	-0.61	-1.45	-2.3	-3.1	-3.76	-4.21	-4.38	-4.18	-3.57	-2.62	-1.46	-0.3	0.69	1.41	1.85	2.12	2.29	2.4	2.4	2.22	1.84	1.32	0.83	0.52	0.48	0.68	1	1.3	1.49	1.56	1.6	1.66	1.75	1.83	1.84	1.74	1.51	1.22	0.91	0.62	0.36	0.07	-0.32	-0.86	-1.55	-2.28	-2.85	-3.06	-2.83	-2.24	-1.49	-0.81	-0.33	-0.03	0.25	0.67	1.26	1.89	2.34	2.42	2.1	1.54	0.95	0.55	0.42	0.5	0.65	0.72	0.64	0.46	0.29	0.24	0.38	0.64	0.9	1.01	0.86	0.49	0.01	-0.4	-0.61	-0.57	-0.36	-0.09	0.08	0.06	-0.18	-0.61	-1.21	-1.92	-2.63	-3.23	-3.54	-3.45	-2.93	-2.1	-1.15	-0.3	0.34	0.79	1.18	1.61	2.14	2.67	3.03	3.08	2.77	2.19	1.52	0.94	0.59	0.47
-2.83	-2.24	-1.49	-0.81	-0.33	-0.03	0.25	0.67	1.26	1.89	2.34	2.42	2.1	1.54	0.95	0.55	0.42	0.5	0.65	0.72	0.64	0.46	0.29	0.24	0.38	0.64	0.9	1.01	0.86	0.49	0.01	-0.4	-0.61	-0.57	-0.36	-0.09	0.08	0.06	-0.18	-0.61	-1.21	-1.92	-2.63	-3.23	-3.54	-3.45	-2.93	-2.1	-1.15	-0.3	0.34	0.79	1.18	1.61	2.14	2.67	3.03	3.08	2.77	2.19	1.52	0.94	0.59	0.47	0.52	0.62	0.7	0.73	0.73	0.73	0.75	0.77	0.72	0.55	0.24	-0.15	-0.49	-0.66	-0.58	-0.26	0.18	0.59	0.78	0.65	0.21	-0.47	-1.23	-1.93	-2.44	-2.7	-2.7	-2.48	-2.12	-1.67	-1.22	-0.77	-0.27	0.3	0.96	1.64	2.2	2.49	2.48	2.23	1.9	1.63	1.47	1.36	1.19	0.9	0.52	0.19	0.01	0.02	0.12	0.17	0.09	-0.1	-0.32	-0.46	-0.51	-0.54	-0.59	-0.65	-0.64	-0.47	-0.14	0.21
0.52	0.62	0.7	0.73	0.73	0.73	0.75	0.77	0.72	0.55	0.24	-0.15	-0.49	-0.66	-0.58	-0.26	0.18	0.59	0.78	0.65	0.21	-0.47	-1.23	-1.93	-2.44	-2.7	-2.7	-2.48	-2.12	-1.67	-1.22	-0.77	-0.27	0.3	0.96	1.64	2.2	2.49	2.48	2.23	1.9	1.63	1.47	1.36	1.19	0.9	0.52	0.19	0.01	0.02	0.12	0.17	0.09	-0.1	-0.32	-0.46	-0.51	-0.54	-0.59	-0.65	-0.64	-0.47	-0.14	0.21	0.37	0.17	-0.39	-1.16	-1.89	-2.39	-2.61	-2.64	-2.62	-2.61	-2.55	-2.31	-1.78	-1.01	-0.15	0.57	1	1.08	0.92	0.66	0.45	0.37	0.4	0.48	0.53	0.46	0.27	0.02	-0.16	-0.17	0.02	0.33	0.65	0.84	0.85	0.73	0.57	0.47	0.44	0.44	0.41	0.3	0.13	-0.08	-0.33	-0.63	-1.01	-1.46	-1.95	-2.39	-2.72	-2.89	-2.85	-2.57	-2.04	-1.3	-0.41	0.52	1.33	1.93	2.25	2.34	2.25	2.04
0.37	0.17	-0.39	-1.16	-1.89	-2.39	-2.61	-2.64	-2.62	-2.61	-2.55	-2.31	-1.78	-1.01	-0.15	0.57	1	1.08	0.92	0.66	0.45	0.37	0.4	0.48	0.53	0.46	0.27	0.02	-0.16	-0.17	0.02	0.33	0.65	0.84	0.85	0.73	0.57	0.47	0.44	0.44	0.41	0.3	0.13	-0.08	-0.33	-0.63	-1.01	-1.46	-1.95	-2.39	-2.72	-2.89	-2.85	-2.57	-2.04	-1.3	-0.41	0.52	1.33	1.93	2.25	2.34	2.25	2.04	1.74	1.35	0.9	0.45	0.11	-0.02	0.07	0.34	0.64	0.81	0.81	0.7	0.59	0.6	0.7	0.75	0.6	0.19	-0.39	-0.94	-1.28	-1.33	-1.2	-1.08	-1.17	-1.53	-2.08	-2.67	-3.16	-3.45	-3.51	-3.32	-2.89	-2.22	-1.38	-0.5	0.28	0.85	1.15	1.18	1.01	0.71	0.35	0.02	-0.23	-0.32	-0.24	-0.02	0.25	0.43	0.45	0.3	0.03	-0.26	-0.53	-0.72	-0.85	-0.9	-0.85	-0.67	-0.34	0.08	0.44	0.59
1.74	1.35	0.9	0.45	0.11	-0.02	0.07	0.34	0.64	0.81	0.81	0.7	0.59	0.6	0.7	0.75	0.6	0.19	-0.39	-0.94	-1.28	-1.33	-1.2	-1.08	-1.17	-1.53	-2.08	-2.67	-3.16	-3.45	-3.51	-3.32	-2.89	-2.22	-1.38	-0.5	0.28	0.85	1.15	1.18	1.01	0.71	0.35	0.02	-0.23	-0.32	-0.24	-0.02	0.25	0.43	0.45	0.3	0.03	-0.26	-0.53	-0.72	-0.85	-0.9	-0.85	-0.67	-0.34	0.08	0.44	0.59	0.42	-0.1	-0.88	-1.75	-2.51	-3.03	-3.24	-3.17	-2.88	-2.47	-2.01	-1.52	-1.04	-0.55	-0.02	0.6	1.27	1.95	2.48	2.74	2.64	2.2	1.57	0.93	0.45	0.22	0.22	0.38	0.6	0.81	0.99	1.09	1.09	0.94	0.63	0.24	-0.15	-0.45	-0.64	-0.74	-0.82	-0.9	-0.95	-0.92	-0.82	-0.73	-0.81	-1.15	-1.73	-2.36	-2.8	-2.86	-2.55	-2.01	-1.43	-0.95	-0.54	-0.11	0.42	1.02	1.58	1.96	2.09	2.01
0.42	-0.1	-0.88	-1.75	-2.51	-3.03	-3.24	-3.17	-2.88	-2.47	-2.01	-1.52	-1.04	-0.55	-0.02	0.6	1.27	1.95	2.48	2.74	2.64	2.2	1.57	0.93	0.45	0.22	0.22	0.38	0.6	0.81	0.99	1.09	1.09	0.94	0.63	0.24	-0.15	-0.45	-0.64	-0.74	-0.82	-0.9	-0.95	-0.92	-0.82	-0.73	-0.81	-1.15	-1.73	-2.36	-2.8	-2.86	-2.55	-2.01	-1.43	-0.95	-0.54	-0.11	0.42	1.02	1.58	1.96	2.09	2.01	1.82	1.67	1.6	1.64	1.75	1.86	1.9	1.82	1.6	1.28	0.96	0.75	0.75	0.94	1.24	1.51	1.67	1.66	1.49	1.19	0.79	0.35	-0.05	-0.31	-0.36	-0.21	0.03	0.17	0.06	-0.35	-0.99	-1.7	-2.38	-2.94	-3.36	-3.64	-3.76	-3.65	-3.31	-2.72	-1.95	-1.05	-0.11	0.81	1.63	2.26	2.62	2.67	2.47	2.13	1.8	1.58	1.51	1.55	1.61	1.63	1.57	1.48	1.44	1.53	1.77	2.11	2.42	2.54
1.82	1.67	1.6	1.64	1.75	1.86	1.9	1.82	1.6	1.28	0.96	0.75	0.75	0.94	1.24	1.51	1.67	1.66	1.49	1.19	0.79	0.35	-0.05	-0.31	-0.36	-0.21	0.03	0.17	0.06	-0.35	-0.99	-1.7	-2.38	-2.94	-3.36	-3.64	-3.76	-3.65	-3.31	-2.72	-1.95	-1.05	-0.11	0.81	1.63	2.26	2.62	2.67	2.47	2.13	1.8	1.58	1.51	1.55	1.61	1.63	1.57	1.48	1.44	1.53	1.77	2.11	2.42	2.54	2.39	1.97	1.37	0.72	0.12	-0.41	-0.86	-1.22	-1.44	-1.48	-1.37	-1.22	-1.18	-1.38	-1.82	-2.42	-3.01	-3.5	-3.81	-3.97	-3.97	-3.8	-3.4	-2.78	-2.02	-1.3	-0.8	-0.64	-0.8	-1.14	-1.51	-1.73	-1.77	-1.66	-1.51	-1.36	-1.24	-1.09	-0.83	-0.44	0.05	0.57	1.04	1.41	1.71	1.96	2.2	2.47	2.78	3.09	3.35	3.51	3.51	3.35	3.06	2.72	2.42	2.23	2.16	2.2	2.26	2.23	2.02	1.54
2.39	1.97	1.37	0.72	0.12	-0.41	-0.86	-1.22	-1.44	-1.48	-1.37	-1.22	-1.18	-1.38	-1.82	-2.42	-3.01	-3.5	-3.81	-3.97	-3.97	-3.8	-3.4	-2.78	-2.02	-1.3	-0.8	-0.64	-0.8	-1.14	-1.51	-1.73	-1.77	-1.66	-1.51	-1.36	-1.24	-1.09	-0.83	-0.44	0.05	0.57	1.04	1.41	1.71	1.96	2.2	2.47	2.78	3.09	3.35	3.51	3.51	3.35	3.06	2.72	2.42	2.23	2.16	2.2	2.26	2.23	2.02	1.54	0.78	-0.17	-1.13	-1.9	-2.28	-2.2	-1.69	-0.89	-0	0.84	1.53	2.02	2.32	2.42	2.37	2.17	1.89	1.55	1.22	0.94	0.76	0.69	0.74	0.86	0.96	0.97	0.83	0.56	0.19	-0.17	-0.45	-0.58	-0.58	-0.47	-0.33	-0.27	-0.32	-0.53	-0.86	-1.22	-1.53	-1.7	-1.71	-1.63	-1.56	-1.62	-1.84	-2.17	-2.48	-2.61	-2.45	-2	-1.33	-0.58	0.16	0.82	1.39	1.86	2.22	2.44	2.47	2.31	2.02	1.64
0.78	-0.17	-1.13	-1.9	-2.28	-2.2	-1.69	-0.89	-0	0.84	1.53	2.02	2.32	2.42	2.37	2.17	1.89	1.55	1.22	0.94	0.76	0.69	0.74	0.86	0.96	0.97	0.83	0.56	0.19	-0.17	-0.45	-0.58	-0.58	-0.47	-0.33	-0.27	-0.32	-0.53	-0.86	-1.22	-1.53	-1.7	-1.71	-1.63	-1.56	-1.62	-1.84	-2.17	-2.48	-2.61	-2.45	-2	-1.33	-0.58	0.16	0.82	1.39	1.86	2.22	2.44	2.47	2.31	2.02	1.64	1.28	1.01	0.86	0.82	0.87	0.93	0.94	0.87	0.65	0.31	-0.09	-0.47	-0.72	-0.78	-0.65	-0.44	-0.28	-0.28	-0.48	-0.82	-1.19	-1.52	-1.82	-2.15	-2.59	-3.17	-3.81	-4.32	-4.51	-4.21	-3.41	-2.25	-1.01	0.03	0.69	0.96	1.04	1.14	1.41	1.85	2.33	2.66	2.72	2.5	2.08	1.58	1.07	0.57	0.12	-0.27	-0.5	-0.5	-0.21	0.3	0.94	1.55	2.02	2.3	2.39	2.33	2.18	1.98	1.73	1.43
1.28	1.01	0.86	0.82	0.87	0.93	0.94	0.87	0.65	0.31	-0.09	-0.47	-0.72	-0.78	-0.65	-0.44	-0.28	-0.28	-0.48	-0.82	-1.19	-1.52	-1.82	-2.15	-2.59	-3.17	-3.81	-4.32	-4.51	-4.21	-3.41	-2.25	-1.01	0.03	0.69	0.96	1.04	1.14	1.41	1.85	2.33	2.66	2.72	2.5	2.08	1.58	1.07	0.57	0.12	-0.27	-0.5	-0.5	-0.21	0.3	0.94	1.55	2.02	2.3	2.39	2.33	2.18	1.98	1.73	1.43	1.11	0.8	0.51	0.25	-0.03	-0.42	-1	-1.79	-2.74	-3.73	-4.59	-5.13	-5.25	-4.9	-4.16	-3.15	-2.05	-1.01	-0.15	0.43	0.73	0.78	0.66	0.5	0.4	0.43	0.6	0.84	1.06	1.17	1.14	1	0.82	0.71	0.74	0.91	1.19	1.47	1.67	1.69	1.54	1.27	0.97	0.75	0.66	0.7	0.85	1.08	1.39	1.73	2.04	2.19	2.05	1.53	0.62	-0.57	-1.84	-2.96	-3.79	-4.22	-4.28	-4.06	-3.65	-3.12
1.11	0.8	0.51	0.25	-0.03	-0.42	-1	-1.79	-2.74	-3.73	-4.59	-5.13	-5.25	-4.9	-4.16	-3.15	-2.05	-1.01	-0.15	0.43	0.73	0.78	0.66	0.5	0.4	0.43	0.6	0.84	1.06	1.17	1.14	1	0.82	0.71	0.74	0.91	1.19	1.47	1.67	1.69	1.54	1.27	0.97	0.75	0.66	0.7	0.85	1.08	1.39	1.73	2.04	2.19	2.05	1.53	0.62	-0.57	-1.84	-2.96	-3.79	-4.22	-4.28	-4.06	-3.65	-3.12	-2.52	-1.85	-1.13	-0.39	0.25	0.7	0.9	0.86	0.7	0.56	0.54	0.64	0.79	0.87	0.85	0.8	0.83	1	1.32	1.67	1.93	2	1.9	1.73	1.61	1.59	1.64	1.67	1.58	1.34	0.98	0.55	0.13	-0.18	-0.36	-0.4	-0.31	-0.15	0.01	0.13	0.14	-0.02	-0.42	-1.04	-1.85	-2.66	-3.27	-3.51	-3.3	-2.67	-1.78	-0.79	0.19	1.07	1.81	2.33	2.54	2.41	1.98	1.39	0.82	0.46	0.35	0.45
-2.52	-1.85	-1.13	-0.39	0.25	0.7	0.9	0.86	0.7	0.56	0.54	0.64	0.79	0.87	0.85	0.8	0.83	1	1.32	1.67	1.93	2	1.9	1.73	1.61	1.59	1.64	1.67	1.58	1.34	0.98	0.55	0.13	-0.18	-0.36	-0.4	-0.31	-0.15	0.01	0.13	0.14	-0.02	-0.42	-1.04	-1.85	-2.66	-3.27	-3.51	-3.3	-2.67	-1.78	-0.79	0.19	1.07	1.81	2.33	2.54	2.41	1.98	1.39	0.82	0.46	0.35	0.45	0.65	0.79	0.78	0.62	0.32	-0.02	-0.33	-0.55	-0.63	-0.54	-0.31	0.03	0.37	0.62	0.69	0.59	0.37	0.14	-0.02	-0.1	-0.16	-0.31	-0.61	-1.1	-1.7	-2.32	-2.87	-3.26	-3.44	-3.4	-3.15	-2.69	-2.07	-1.28	-0.38	0.58	1.47	2.15	2.5	2.52	2.27	1.88	1.46	1.07	0.72	0.4	0.15	0.01	0.04	0.24	0.51	0.73	0.81	0.73	0.53	0.33	0.18	0.13	0.14	0.19	0.27	0.35	0.44	0.5
0.65	0.79	0.78	0.62	0.32	-0.02	-0.33	-0.55	-0.63	-0.54	-0.31	0.03	0.37	0.62	0.69	0.59	0.37	0.14	-0.02	-0.1	-0.16	-0.31	-0.61	-1.1	-1.7	-2.32	-2.87	-3.26	-3.44	-3.4	-3.15	-2.69	-2.07	-1.28	-0.38	0.58	1.47	2.15	2.5	2.52	2.27	1.88	1.46	1.07	0.72	0.4	0.15	0.01	0.04	0.24	0.51	0.73	0.81	0.73	0.53	0.33	0.18	0.13	0.14	0.19	0.27	0.35	0.44	0.5	0.49	0.33	-0.04	-0.64	-1.42	-2.24	-2.9	-3.27	-3.28	-3.01	-2.59	-2.13	-1.68	-1.17	-0.53	0.25	1.08	1.83	2.35	2.62	2.7	2.66	2.56	2.36	2.04	1.62	1.18	0.86	0.7	0.7	0.73	0.7	0.55	0.29	-0.01	-0.29	-0.5	-0.57	-0.48	-0.22	0.18	0.56	0.75	0.6	0.07	-0.77	-1.73	-2.61	-3.27	-3.68	-3.89	-3.97	-3.92	-3.72	-3.32	-2.68	-1.83	-0.88	0.03	0.75	1.21	1.41	1.44	1.4
0.49	0.33	-0.04	-0.64	-1.42	-2.24	-2.9	-3.27	-3.28	-3.01	-2.59	-2.13	-1.68	-1.17	-0.53	0.25	1.08	1.83	2.35	2.62	2.7	2.66	2.56	2.36	2.04	1.62	1.18	0.86	0.7	0.7	0.73	0.7	0.55	0.29	-0.01	-0.29	-0.5	-0.57	-0.48	-0.22	0.18	0.56	0.75	0.6	0.07	-0.77	-1.73	-2.61	-3.27	-3.68	-3.89	-3.97	-3.92	-3.72	-3.32	-2.68	-1.83	-0.88	0.03	0.75	1.21	1.41	1.44	1.4	1.34	1.29	1.27	1.29	1.41	1.66	2.03	2.46	2.83	3.03	3	2.77	2.42	2.07	1.76	1.53	1.34	1.17	1	0.82	0.59	0.28	-0.14	-0.64	-1.18	-1.7	-2.15	-2.52	-2.81	-3.04	-3.13	-3.03	-2.65	-2	-1.14	-0.21	0.64	1.31	1.77	2.02	2.08	1.96	1.71	1.39	1.08	0.88	0.86	0.97	1.16	1.32	1.36	1.31	1.2	1.12	1.09	1.08	1.02	0.86	0.61	0.34	0.18	0.17	0.3	0.45
1.34	1.29	1.27	1.29	1.41	1.66	2.03	2.46	2.83	3.03	3	2.77	2.42	2.07	1.76	1.53	1.34	1.17	1	0.82	0.59	0.28	-0.14	-0.64	-1.18	-1.7	-2.15	-2.52	-2.81	-3.04	-3.13	-3.03	-2.65	-2	-1.14	-0.21	0.64	1.31	1.77	2.02	2.08	1.96	1.71	1.39	1.08	0.88	0.86	0.97	1.16	1.32	1.36	1.31	1.2	1.12	1.09	1.08	1.02	0.86	0.61	0.34	0.18	0.17	0.3	0.45	0.49	0.34	0.03	-0.34	-0.62	-0.77	-0.84	-0.97	-1.29	-1.83	-2.52	-3.19	-3.66	-3.8	-3.58	-3.05	-2.29	-1.39	-0.43	0.52	1.37	2.04	2.49	2.72	2.76	2.66	2.45	2.11	1.67	1.19	0.77	0.51	0.45	0.57	0.77	0.97	1.1	1.16	1.15	1.09	1.01	0.89	0.73	0.54	0.3	0.04	-0.21	-0.43	-0.56	-0.63	-0.69	-0.83	-1.13	-1.58	-2.09	-2.49	-2.67	-2.63	-2.43	-2.22	-2.04	-1.87	-1.61	-1.16
0.49	0.34	0.03	-0.34	-0.62	-0.77	-0.84	-0.97	-1.29	-1.83	-2.52	-3.19	-3.66	-3.8	-3.58	-3.05	-2.29	-1.39	-0.43	0.52	1.37	2.04	2.49	2.72	2.76	2.66	2.45	2.11	1.67	1.19	0.77	0.51	0.45	0.57	0.77	0.97	1.1	1.16	1.15	1.09	1.01	0.89	0.73	0.54	0.3	0.04	-0.21	-0.43	-0.56	-0.63	-0.69	-0.83	-1.13	-1.58	-2.09	-2.49	-2.67	-2.63	-2.43	-2.22	-2.04	-1.87	-1.61	-1.16	-0.51	0.29	1.08	1.73	2.12	2.23	2.14	1.93	1.71	1.52	1.4	1.28	1.14	0.94	0.72	0.54	0.46	0.51	0.63	0.72	0.69	0.54	0.32	0.14	0.09	0.15	0.27	0.38	0.42	0.39	0.31	0.2	0.05	-0.17	-0.49	-0.95	-1.53	-2.21	-2.89	-3.46	-3.79	-3.78	-3.41	-2.73	-1.86	-0.97	-0.19	0.37	0.67	0.72	0.6	0.4	0.24	0.2	0.3	0.49	0.7	0.88	0.98	1.03	1.03	0.97	0.88	0.78
-0.51	0.29	1.08	1.73	2.12	2.23	2.14	1.93	1.71	1.52	1.4	1.28	1.14	0.94	0.72	0.54	0.46	0.51	0.63	0.72	0.69	0.54	0.32	0.14	0.09	0.15	0.27	0.38	0.42	0.39	0.31	0.2	0.05	-0.17	-0.49	-0.95	-1.53	-2.21	-2.89	-3.46	-3.79	-3.78	-3.41	-2.73	-1.86	-0.97	-0.19	0.37	0.67	0.72	0.6	0.4	0.24	0.2	0.3	0.49	0.7	0.88	0.98	1.03	1.03	0.97	0.88	0.78	0.74	0.84	1.12	1.51	1.88	2.1	2.08	1.85	1.57	1.39	1.44	1.68	2	2.23	2.25	2.04	1.69	1.27	0.88	0.53	0.18	-0.16	-0.48	-0.71	-0.78	-0.65	-0.37	-0.01	0.33	0.6	0.78	0.86	0.87	0.85	0.81	0.77	0.74	0.72	0.67	0.59	0.49	0.39	0.36	0.45	0.66	0.88	0.99	0.87	0.51	0.01	-0.43	-0.63	-0.5	-0.1	0.38	0.73	0.82	0.67	0.38	0.08	-0.16	-0.37	-0.6	-0.92
0.74	0.84	1.12	1.51	1.88	2.1	2.08	1.85	1.57	1.39	1.44	1.68	2	2.23	2.25	2.04	1.69	1.27	0.88	0.53	0.18	-0.16	-0.48	-0.71	-0.78	-0.65	-0.37	-0.01	0.33	0.6	0.78	0.86	0.87	0.85	0.81	0.77	0.74	0.72	0.67	0.59	0.49	0.39	0.36	0.45	0.66	0.88	0.99	0.87	0.51	0.01	-0.43	-0.63	-0.5	-0.1	0.38	0.73	0.82	0.67	0.38	0.08	-0.16	-0.37	-0.6	-0.92	-1.3	-1.68	-1.97	-2.14	-2.2	-2.27	-2.44	-2.75	-3.14	-3.49	-3.71	-3.73	-3.56	-3.28	-2.92	-2.53	-2.06	-1.52	-0.93	-0.32	0.24	0.76	1.24	1.71	2.16	2.53	2.71	2.6	2.2	1.58	0.87	0.25	-0.13	-0.2	0.01	0.39	0.79	1.08	1.18	1.07	0.83	0.55	0.31	0.16	0.09	0.07	0.05	-0.01	-0.14	-0.33	-0.55	-0.74	-0.83	-0.82	-0.73	-0.67	-0.81	-1.27	-2.05	-3.04	-4	-4.66	-4.82	-4.45
-1.3	-1.68	-1.97	-2.14	-2.2	-2.27	-2.44	-2.75	-3.14	-3.49	-3.71	-3.73	-3.56	-3.28	-2.92	-2.53	-2.06	-1.52	-0.93	-0.32	0.24	0.76	1.24	1.71	2.16	2.53	2.71	2.6	2.2	1.58	0.87	0.25	-0.13	-0.2	0.01	0.39	0.79	1.08	1.18	1.07	0.83	0.55	0.31	0.16	0.09	0.07	0.05	-0.01	-0.14	-0.33	-0.55	-0.74	-0.83	-0.82	-0.73	-0.67	-0.81	-1.27	-2.05	-3.04	-4	-4.66	-4.82	-4.45	-3.65	-2.62	-1.54	-0.56	0.24	0.82	1.2	1.41	1.55	1.7	1.91	2.18	2.39	2.41	2.15	1.67	1.15	0.8	0.74	0.95	1.25	1.4	1.27	0.91	0.48	0.17	0.11	0.24	0.45	0.57	0.54	0.4	0.25	0.19	0.2	0.23	0.16	-0.12	-0.63	-1.31	-2.07	-2.8	-3.37	-3.74	-3.88	-3.81	-3.59	-3.27	-2.88	-2.44	-1.93	-1.3	-0.53	0.33	1.19	1.93	2.44	2.68	2.68	2.5	2.22	1.9	1.57	1.23
-3.65	-2.62	-1.54	-0.56	0.24	0.82	1.2	1.41	1.55	1.7	1.91	2.18	2.39	2.41	2.15	1.67	1.15	0.8	0.74	0.95	1.25	1.4	1.27	0.91	0.48	0.17	0.11	0.24	0.45	0.57	0.54	0.4	0.25	0.19	0.2	0.23	0.16	-0.12	-0.63	-1.31	-2.07	-2.8	-3.37	-3.74	-3.88	-3.81	-3.59	-3.27	-2.88	-2.44	-1.93	-1.3	-0.53	0.33	1.19	1.93	2.44	2.68	2.68	2.5	2.22	1.9	1.57	1.23	0.91	0.63	0.43	0.35	0.37	0.47	0.61	0.75	0.85	0.89	0.83	0.67	0.45	0.18	-0.06	-0.19	-0.13	0.12	0.51	0.86	0.99	0.74	0.05	-1	-2.25	-3.45	-4.42	-5.01	-5.15	-4.87	-4.23	-3.34	-2.31	-1.31	-0.43	0.26	0.76	1.15	1.49	1.85	2.23	2.63	2.98	3.19	3.2	2.97	2.56	2.11	1.76	1.62	1.7	1.93	2.2	2.43	2.57	2.64	2.64	2.55	2.32	1.94	1.44	0.93	0.54	0.34
0.91	0.63	0.43	0.35	0.37	0.47	0.61	0.75	0.85	0.89	0.83	0.67	0.45	0.18	-0.06	-0.19	-0.13	0.12	0.51	0.86	0.99	0.74	0.05	-1	-2.25	-3.45	-4.42	-5.01	-5.15	-4.87	-4.23	-3.34	-2.31	-1.31	-0.43	0.26	0.76	1.15	1.49	1.85	2.23	2.63	2.98	3.19	3.2	2.97	2.56	2.11	1.76	1.62	1.7	1.93	2.2	2.43	2.57	2.64	2.64	2.55	2.32	1.94	1.44	0.93	0.54	0.34	0.27	0.22	0.09	-0.19	-0.58	-1.05	-1.6	-2.26	-3.03	-3.85	-4.58	-5.03	-5.06	-4.65	-3.89	-2.95	-1.97	-1.01	-0.1	0.78	1.58	2.21	2.55	2.54	2.19	1.64	1.04	0.54	0.25	0.21	0.38	0.72	1.14	1.55	1.87	2.01	1.94	1.66	1.23	0.71	0.23	-0.14	-0.32	-0.31	-0.19	-0.1	-0.22	-0.63	-1.35	-2.26	-3.18	-3.97	-4.53	-4.84	-4.88	-4.63	-4.08	-3.25	-2.23	-1.19	-0.29	0.35	0.7	0.8
0.27	0.22	0.09	-0.19	-0.58	-1.05	-1.6	-2.26	-3.03	-3.85	-4.58	-5.03	-5.06	-4.65	-3.89	-2.95	-1.97	-1.01	-0.1	0.78	1.58	2.21	2.55	2.54	2.19	1.64	1.04	0.54	0.25	0.21	0.38	0.72	1.14	1.55	1.87	2.01	1.94	1.66	1.23	0.71	0.23	-0.14	-0.32	-0.31	-0.19	-0.1	-0.22	-0.63	-1.35	-2.26	-3.18	-3.97	-4.53	-4.84	-4.88	-4.63	-4.08	-3.25	-2.23	-1.19	-0.29	0.35	0.7	0.8	0.72	0.55	0.33	0.1	-0.14	-0.35	-0.53	-0.69	-0.83	-0.98	-1.15	-1.35	-1.55	-1.7	-1.74	-1.64	-1.41	-1.1	-0.79	-0.52	-0.29	-0.08	0.15	0.38	0.55	0.56	0.34	-0.11	-0.71	-1.39	-2.01	-2.51	-2.83	-2.91	-2.77	-2.4	-1.83	-1.13	-0.39	0.32	0.9	1.33	1.65	1.92	2.21	2.56	2.93	3.23	3.36	3.28	2.99	2.56	2.1	1.72	1.49	1.46	1.59	1.84	2.11	2.29	2.3	2.14	1.86	1.55
0.72	0.55	0.33	0.1	-0.14	-0.35	-0.53	-0.69	-0.83	-0.98	-1.15	-1.35	-1.55	-1.7	-1.74	-1.64	-1.41	-1.1	-0.79	-0.52	-0.29	-0.08	0.15	0.38	0.55	0.56	0.34	-0.11	-0.71	-1.39	-2.01	-2.51	-2.83	-2.91	-2.77	-2.4	-1.83	-1.13	-0.39	0.32	0.9	1.33	1.65	1.92	2.21	2.56	2.93	3.23	3.36	3.28	2.99	2.56	2.1	1.72	1.49	1.46	1.59	1.84	2.11	2.29	2.3	2.14	1.86	1.55	1.29	1.07	0.84	0.51	-0.02	-0.81	-1.82	-2.94	-3.95	-4.65	-4.87	-4.55	-3.77	-2.7	-1.56	-0.53	0.28	0.81	1.11	1.24	1.29	1.3	1.28	1.26	1.2	1.12	1.02	0.94	0.9	0.9	0.93	0.92	0.85	0.76	0.67	0.65	0.71	0.84	0.99	1.11	1.15	1.1	1	0.87	0.68	0.39	-0.06	-0.68	-1.4	-2.08	-2.57	-2.77	-2.7	-2.45	-2.13	-1.77	-1.33	-0.72	0.11	1.1	2.1	2.92	3.41	3.54
1.29	1.07	0.84	0.51	-0.02	-0.81	-1.82	-2.94	-3.95	-4.65	-4.87	-4.55	-3.77	-2.7	-1.56	-0.53	0.28	0.81	1.11	1.24	1.29	1.3	1.28	1.26	1.2	1.12	1.02	0.94	0.9	0.9	0.93	0.92	0.85	0.76	0.67	0.65	0.71	0.84	0.99	1.11	1.15	1.1	1	0.87	0.68	0.39	-0.06	-0.68	-1.4	-2.08	-2.57	-2.77	-2.7	-2.45	-2.13	-1.77	-1.33	-0.72	0.11	1.1	2.1	2.92	3.41	3.54	3.42	3.17	2.93	2.75	2.56	2.3	1.93	1.51	1.13	0.87	0.74	0.7	0.66	0.61	0.55	0.54	0.61	0.72	0.79	0.73	0.53	0.22	-0.09	-0.32	-0.45	-0.54	-0.7	-1.05	-1.63	-2.38	-3.14	-3.69	-3.88	-3.62	-2.96	-2.01	-0.93	0.13	1.09	1.9	2.55	3.01	3.25	3.23	2.94	2.42	1.77	1.1	0.52	0.11	-0.11	-0.14	0.02	0.35	0.83	1.37	1.86	2.2	2.32	2.26	2.09	1.9	1.7	1.43
3.42	3.17	2.93	2.75	2.56	2.3	1.93	1.51	1.13	0.87	0.74	0.7	0.66	0.61	0.55	0.54	0.61	0.72	0.79	0.73	0.53	0.22	-0.09	-0.32	-0.45	-0.54	-0.7	-1.05	-1.63	-2.38	-3.14	-3.69	-3.88	-3.62	-2.96	-2.01	-0.93	0.13	1.09	1.9	2.55	3.01	3.25	3.23	2.94	2.42	1.77	1.1	0.52	0.11	-0.11	-0.14	0.02	0.35	0.83	1.37	1.86	2.2	2.32	2.26	2.09	1.9	1.7	1.43	1.04	0.5	-0.16	-0.84	-1.46	-1.98	-2.4	-2.74	-2.99	-3.12	-3.1	-2.89	-2.55	-2.13	-1.69	-1.26	-0.81	-0.33	0.21	0.75	1.22	1.57	1.75	1.78	1.7	1.51	1.22	0.81	0.32	-0.14	-0.46	-0.55	-0.41	-0.13	0.21	0.59	1.06	1.67	2.42	3.17	3.72	3.88	3.61	3.01	2.29	1.65	1.18	0.85	0.54	0.15	-0.34	-0.87	-1.34	-1.64	-1.71	-1.53	-1.14	-0.56	0.23	1.22	2.39	3.68	4.95	6.06
1.04	0.5	-0.16	-0.84	-1.46	-1.98	-2.4	-2.74	-2.99	-3.12	-3.1	-2.89	-2.55	-2.13	-1.69	-1.26	-0.81	-0.33	0.21	0.75	1.22	1.57	1.75	1.78	1.7	1.51	1.22	0.81	0.32	-0.14	-0.46	-0.55	-0.41	-0.13	0.21	0.59	1.06	1.67	2.42	3.17	3.72	3.88	3.61	3.01	2.29	1.65	1.18	0.85	0.54	0.15	-0.34	-0.87	-1.34	-1.64	-1.71	-1.53	-1.14	-0.56	0.23	1.22	2.39	3.68	4.95	6.06	6.9	7.42	7.67	7.71	7.62	7.43	7.13	6.69	6.09	5.33	4.4	3.31	2.06	0.68	-0.81	-2.4	-4.09	-5.93	-7.95	-10.18	-12.55	-14.93	-17.11	-18.86	-19.95	-20.21	-19.54	-17.92	-15.39	-12.1	-8.27	-4.22	-0.29	3.17	5.86	7.59	8.27	7.98	6.88	5.24	3.38	1.65	0.32	-0.44	-0.64	-0.41	0.05	0.57	1.05	1.45	1.77	2.01	2.14	2.14	2.02	1.82	1.61	1.44	1.3	1.14	0.96	0.75	0.52	0.29
6.9	7.42	7.67	7.71	7.62	7.43	7.13	6.69	6.09	5.33	4.4	3.31	2.06	0.68	-0.81	-2.4	-4.09	-5.93	-7.95	-10.18	-12.55	-14.93	-17.11	-18.86	-19.95	-20.21	-19.54	-17.92	-15.39	-12.1	-8.27	-4.22	-0.29	3.17	5.86	7.59	8.27	7.98	6.88	5.24	3.38	1.65	0.32	-0.44	-0.64	-0.41	0.05	0.57	1.05	1.45	1.77	2.01	2.14	2.14	2.02	1.82	1.61	1.44	1.3	1.14	0.96	0.75	0.52	0.29	0.1	-0.03	-0.08	-0	0.19	0.48	0.76	0.92	0.88	0.63	0.2	-0.33	-0.92	-1.53	-2.14	-2.73	-3.24	-3.6	-3.72	-3.56	-3.07	-2.26	-1.17	0.07	1.31	2.32	2.92	3.04	2.75	2.24	1.71	1.29	1	0.77	0.52	0.2	-0.16	-0.5	-0.78	-1.04	-1.31	-1.61	-1.89	-2.03	-1.9	-1.49	-0.87	-0.22	0.28	0.53	0.56	0.44	0.26	0.01	-0.38	-1.01	-1.89	-2.94	-3.96	-4.74	-5.11	-5.01	-4.49	-3.68
0.1	-0.03	-0.08	-0	0.19	0.48	0.76	0.92	0.88	0.63	0.2	-0.33	-0.92	-1.53	-2.14	-2.73	-3.24	-3.6	-3.72	-3.56	-3.07	-2.26	-1.17	0.07	1.31	2.32	2.92	3.04	2.75	2.24	1.71	1.29	1	0.77	0.52	0.2	-0.16	-0.5	-0.78	-1.04	-1.31	-1.61	-1.89	-2.03	-1.9	-1.49	-0.87	-0.22	0.28	0.53	0.56	0.44	0.26	0.01	-0.38	-1.01	-1.89	-2.94	-3.96	-4.74	-5.11	-5.01	-4.49	-3.68	-2.69	-1.64	-0.63	0.31	1.11	1.74	2.13	2.28	2.19	1.97	1.74	1.6	1.6	1.67	1.72	1.66	1.52	1.38	1.36	1.51	1.78	2.07	2.26	2.32	2.26	2.13	1.95	1.73	1.46	1.13	0.8	0.51	0.25	-0.04	-0.48	-1.15	-2.04	-3.05	-4	-4.67	-4.94	-4.77	-4.22	-3.4	-2.44	-1.43	-0.44	0.51	1.4	2.18	2.83	3.28	3.5	3.47	3.2	2.75	2.18	1.54	0.87	0.17	-0.55	-1.29	-1.97	-2.51
-2.69	-1.64	-0.63	0.31	1.11	1.74	2.13	2.28	2.19	1.97	1.74	1.6	1.6	1.67	1.72	1.66	1.52	1.38	1.36	1.51	1.78	2.07	2.26	2.32	2.26	2.13	1.95	1.73	1.46	1.13	0.8	0.51	0.25	-0.04	-0.48	-1.15	-2.04	-3.05	-4	-4.67	-4.94	-4.77	-4.22	-3.4	-2.44	-1.43	-0.44	0.51	1.4	2.18	2.83	3.28	3.5	3.47	3.2	2.75	2.18	1.54	0.87	0.17	-0.55	-1.29	-1.97	-2.51	-2.85	-2.91	-2.7	-2.24	-1.6	-0.84	0.01	0.89	1.75	2.57	3.3	3.93	4.43	4.78	4.9	4.7	4.12	3.17	1.99	0.81	-0.1	-0.56	-0.5	-0.05	0.58	1.19	1.7	2.1	2.48	2.86	3.19	3.38	3.31	2.95	2.35	1.62	0.88	0.21	-0.37	-0.86	-1.25	-1.54	-1.7	-1.7	-1.54	-1.27	-0.95	-0.64	-0.38	-0.2	-0.06	0.05	0.12	0.11	-0.03	-0.33	-0.76	-1.28	-1.85	-2.47	-3.16	-3.92	-4.72	-5.42
-2.85	-2.91	-2.7	-2.24	-1.6	-0.84	0.01	0.89	1.75	2.57	3.3	3.93	4.43	4.78	4.9	4.7	4.12	3.17	1.99	0.81	-0.1	-0.56	-0.5	-0.05	0.58	1.19	1.7	2.1	2.48	2.86	3.19	3.38	3.31	2.95	2.35	1.62	0.88	0.21	-0.37	-0.86	-1.25	-1.54	-1.7	-1.7	-1.54	-1.27	-0.95	-0.64	-0.38	-0.2	-0.06	0.05	0.12	0.11	-0.03	-0.33	-0.76	-1.28	-1.85	-2.47	-3.16	-3.92	-4.72	-5.42	-5.89	-5.99	-5.64	-4.85	-3.67	-2.25	-0.75	0.65	1.8	2.6	3.02	3.11	2.97	2.69	2.36	2.02	1.68	1.38	1.14	0.99	0.91	0.9	0.9	0.9	0.87	0.82	0.79	0.79	0.85	0.94	1.04	1.08	1.04	0.86	0.56	0.14	-0.41	-1.07	-1.83	-2.62	-3.36	-3.92	-4.2	-4.12	-3.68	-2.95	-2.02	-1	-0.01	0.89	1.63	2.15	2.38	2.33	2.07	1.71	1.43	1.3	1.31	1.33	1.23	0.93	0.46	-0.03
-5.89	-5.99	-5.64	-4.85	-3.67	-2.25	-0.75	0.65	1.8	2.6	3.02	3.11	2.97	2.69	2.36	2.02	1.68	1.38	1.14	0.99	0.91	0.9	0.9	0.9	0.87	0.82	0.79	0.79	0.85	0.94	1.04	1.08	1.04	0.86	0.56	0.14	-0.41	-1.07	-1.83	-2.62	-3.36	-3.92	-4.2	-4.12	-3.68	-2.95	-2.02	-1	-0.01	0.89	1.63	2.15	2.38	2.33	2.07	1.71	1.43	1.3	1.31	1.33	1.23	0.93	0.46	-0.03	-0.37	-0.46	-0.33	-0.03	0.33	0.69	0.98	1.14	1.09	0.76	0.15	-0.64	-1.46	-2.17	-2.69	-3.06	-3.41	-3.85	-4.42	-4.97	-5.29	-5.17	-4.5	-3.37	-1.98	-0.6	0.62	1.6	2.39	3.03	3.5	3.74	3.66	3.29	2.75	2.27	2.03	2.11	2.41	2.76	2.99	3.02	2.85	2.57	2.25	1.95	1.69	1.46	1.31	1.26	1.29	1.35	1.35	1.21	0.87	0.33	-0.37	-1.24	-2.27	-3.4	-4.55	-5.56	-6.26	-6.52
-0.37	-0.46	-0.33	-0.03	0.33	0.69	0.98	1.14	1.09	0.76	0.15	-0.64	-1.46	-2.17	-2.69	-3.06	-3.41	-3.85	-4.42	-4.97	-5.29	-5.17	-4.5	-3.37	-1.98	-0.6	0.62	1.6	2.39	3.03	3.5	3.74	3.66	3.29	2.75	2.27	2.03	2.11	2.41	2.76	2.99	3.02	2.85	2.57	2.25	1.95	1.69	1.46	1.31	1.26	1.29	1.35	1.35	1.21	0.87	0.33	-0.37	-1.24	-2.27	-3.4	-4.55	-5.56	-6.26	-6.52	-6.34	-5.75	-4.85	-3.72	-2.41	-0.97	0.51	1.87	2.93	3.54	3.69	3.43	2.96	2.44	2.03	1.77	1.64	1.59	1.55	1.5	1.48	1.53	1.65	1.83	1.99	2.07	2.06	2.02	1.97	1.95	1.9	1.76	1.46	1.03	0.55	0.16	-0.09	-0.24	-0.41	-0.74	-1.33	-2.17	-3.17	-4.22	-5.16	-5.86	-6.22	-6.15	-5.61	-4.64	-3.32	-1.81	-0.3	1.03	2.08	2.82	3.26	3.44	3.42	3.23	2.94	2.59	2.27	2.02
-6.34	-5.75	-4.85	-3.72	-2.41	-0.97	0.51	1.87	2.93	3.54	3.69	3.43	2.96	2.44	2.03	1.77	1.64	1.59	1.55	1.5	1.48	1.53	1.65	1.83	1.99	2.07	2.06	2.02	1.97	1.95	1.9	1.76	1.46	1.03	0.55	0.16	-0.09	-0.24	-0.41	-0.74	-1.33	-2.17	-3.17	-4.22	-5.16	-5.86	-6.22	-6.15	-5.61	-4.64	-3.32	-1.81	-0.3	1.03	2.08	2.82	3.26	3.44	3.42	3.23	2.94	2.59	2.27	2.02	1.85	1.73	1.61	1.49	1.39	1.37	1.5	1.77	2.11	2.42	2.63	2.69	2.62	2.46	2.22	1.94	1.64	1.36	1.11	0.88	0.64	0.32	-0.11	-0.63	-1.22	-1.84	-2.52	-3.26	-4.01	-4.64	-4.94	-4.78	-4.11	-3.08	-1.92	-0.83	0.12	0.98	1.82	2.62	3.23	3.48	3.3	2.83	2.32	2.03	2.01	2.14	2.14	1.83	1.24	0.59	0.15	0.11	0.42	0.88	1.26	1.43	1.37	1.17	0.93	0.69	0.46	0.23
1.85	1.73	1.61	1.49	1.39	1.37	1.5	1.77	2.11	2.42	2.63	2.69	2.62	2.46	2.22	1.94	1.64	1.36	1.11	0.88	0.64	0.32	-0.11	-0.63	-1.22	-1.84	-2.52	-3.26	-4.01	-4.64	-4.94	-4.78	-4.11	-3.08	-1.92	-0.83	0.12	0.98	1.82	2.62	3.23	3.48	3.3	2.83	2.32	2.03	2.01	2.14	2.14	1.83	1.24	0.59	0.15	0.11	0.42	0.88	1.26	1.43	1.37	1.17	0.93	0.69	0.46	0.23	0	-0.2	-0.35	-0.44	-0.52	-0.71	-1.15	-1.9	-2.93	-4.06	-5.02	-5.56	-5.57	-5.1	-4.31	-3.39	-2.44	-1.47	-0.46	0.55	1.44	2.08	2.41	2.49	2.46	2.45	2.49	2.52	2.44	2.2	1.82	1.38	0.99	0.69	0.49	0.4	0.43	0.59	0.85	1.16	1.4	1.46	1.29	0.92	0.49	0.12	-0.14	-0.29	-0.4	-0.56	-0.82	-1.21	-1.74	-2.41	-3.2	-4.03	-4.76	-5.18	-5.14	-4.62	-3.73	-2.69	-1.71	-0.85
0	-0.2	-0.35	-0.44	-0.52	-0.71	-1.15	-1.9	-2.93	-4.06	-5.02	-5.56	-5.57	-5.1	-4.31	-3.39	-2.44	-1.47	-0.46	0.55	1.44	2.08	2.41	2.49	2.46	2.45	2.49	2.52	2.44	2.2	1.82	1.38	0.99	0.69	0.49	0.4	0.43	0.59	0.85	1.16	1.4	1.46	1.29	0.92	0.49	0.12	-0.14	-0.29	-0.4	-0.56	-0.82	-1.21	-1.74	-2.41	-3.2	-4.03	-4.76	-5.18	-5.14	-4.62	-3.73	-2.69	-1.71	-0.85	-0.08	0.7	1.51	2.28	2.86	3.12	3.02	2.66	2.18	1.75	1.43	1.22	1.08	0.98	0.92	0.9	0.93	0.97	0.97	0.91	0.79	0.63	0.48	0.33	0.17	-0.06	-0.35	-0.64	-0.81	-0.78	-0.56	-0.3	-0.21	-0.52	-1.26	-2.33	-3.41	-4.2	-4.5	-4.27	-3.6	-2.68	-1.63	-0.54	0.57	1.63	2.56	3.2	3.45	3.32	2.91	2.45	2.09	1.94	1.97	2.08	2.19	2.24	2.21	2.09	1.83	1.4	0.83	0.22
-0.08	0.7	1.51	2.28	2.86	3.12	3.02	2.66	2.18	1.75	1.43	1.22	1.08	0.98	0.92	0.9	0.93	0.97	0.97	0.91	0.79	0.63	0.48	0.33	0.17	-0.06	-0.35	-0.64	-0.81	-0.78	-0.56	-0.3	-0.21	-0.52	-1.26	-2.33	-3.41	-4.2	-4.5	-4.27	-3.6	-2.68	-1.63	-0.54	0.57	1.63	2.56	3.2	3.45	3.32	2.91	2.45	2.09	1.94	1.97	2.08	2.19	2.24	2.21	2.09	1.83	1.4	0.83	0.22	-0.3	-0.57	-0.55	-0.29	0.06	0.33	0.42	0.29	0.02	-0.3	-0.58	-0.8	-1.01	-1.28	-1.68	-2.24	-2.94	-3.68	-4.36	-4.88	-5.2	-5.3	-5.18	-4.82	-4.22	-3.35	-2.27	-1.04	0.2	1.33	2.23	2.82	3.06	2.99	2.68	2.3	1.96	1.78	1.77	1.84	1.88	1.8	1.62	1.42	1.32	1.37	1.53	1.68	1.69	1.46	1.01	0.39	-0.27	-0.84	-1.18	-1.24	-1.03	-0.67	-0.35	-0.28	-0.57	-1.21	-2.05	-2.88
-0.3	-0.57	-0.55	-0.29	0.06	0.33	0.42	0.29	0.02	-0.3	-0.58	-0.8	-1.01	-1.28	-1.68	-2.24	-2.94	-3.68	-4.36	-4.88	-5.2	-5.3	-5.18	-4.82	-4.22	-3.35	-2.27	-1.04	0.2	1.33	2.23	2.82	3.06	2.99	2.68	2.3	1.96	1.78	1.77	1.84	1.88	1.8	1.62	1.42	1.32	1.37	1.53	1.68	1.69	1.46	1.01	0.39	-0.27	-0.84	-1.18	-1.24	-1.03	-0.67	-0.35	-0.28	-0.57	-1.21	-2.05	-2.88	-3.52	-3.88	-3.96	-3.78	-3.34	-2.63	-1.69	-0.6	0.46	1.31	1.84	2.04	2	1.87	1.73	1.62	1.5	1.37	1.28	1.26	1.33	1.47	1.6	1.65	1.61	1.51	1.4	1.29	1.13	0.9	0.59	0.24	-0.06	-0.24	-0.3	-0.26	-0.21	-0.2	-0.27	-0.43	-0.72	-1.17	-1.84	-2.69	-3.62	-4.44	-4.95	-5.01	-4.56	-3.64	-2.4	-1.03	0.27	1.36	2.16	2.64	2.87	2.91	2.88	2.84	2.83	2.83	2.76	2.54
-3.52	-3.88	-3.96	-3.78	-3.34	-2.63	-1.69	-0.6	0.46	1.31	1.84	2.04	2	1.87	1.73	1.62	1.5	1.37	1.28	1.26	1.33	1.47	1.6	1.65	1.61	1.51	1.4	1.29	1.13	0.9	0.59	0.24	-0.06	-0.24	-0.3	-0.26	-0.21	-0.2	-0.27	-0.43	-0.72	-1.17	-1.84	-2.69	-3.62	-4.44	-4.95	-5.01	-4.56	-3.64	-2.4	-1.03	0.27	1.36	2.16	2.64	2.87	2.91	2.88	2.84	2.83	2.83	2.76	2.54	2.15	1.62	1.07	0.61	0.34	0.25	0.28	0.35	0.38	0.39	0.4	0.41	0.38	0.27	0.03	-0.31	-0.67	-0.98	-1.22	-1.42	-1.73	-2.22	-2.94	-3.79	-4.6	-5.17	-5.38	-5.17	-4.55	-3.59	-2.36	-0.95	0.51	1.86	2.91	3.55	3.78	3.72	3.55	3.41	3.3	3.17	2.91	2.46	1.87	1.29	0.85	0.65	0.66	0.8	0.94	1.01	0.95	0.81	0.65	0.5	0.38	0.26	0.08	-0.22	-0.67	-1.23	-1.83	-2.43
2.15	1.62	1.07	0.61	0.34	0.25	0.28	0.35	0.38	0.39	0.4	0.41	0.38	0.27	0.03	-0.31	-0.67	-0.98	-1.22	-1.42	-1.73	-2.22	-2.94	-3.79	-4.6	-5.17	-5.38	-5.17	-4.55	-3.59	-2.36	-0.95	0.51	1.86	2.91	3.55	3.78	3.72	3.55	3.41	3.3	3.17	2.91	2.46	1.87	1.29	0.85	0.65	0.66	0.8	0.94	1.01	0.95	0.81	0.65	0.5	0.38	0.26	0.08	-0.22	-0.67	-1.23	-1.83	-2.43	-3.01	-3.64	-4.34	-5.09	-5.73	-6.03	-5.78	-4.9	-3.51	-1.9	-0.32	1.04	2.13	3.02	3.75	4.29	4.55	4.45	4.01	3.41	2.84	2.47	2.3	2.21	2.06	1.76	1.33	0.86	0.48	0.26	0.2	0.26	0.4	0.62	0.9	1.23	1.51	1.64	1.53	1.2	0.72	0.17	-0.37	-0.93	-1.58	-2.37	-3.28	-4.17	-4.85	-5.15	-5.02	-4.49	-3.66	-2.63	-1.5	-0.37	0.61	1.31	1.64	1.6	1.31	0.97	0.69	0.53
-3.01	-3.64	-4.34	-5.09	-5.73	-6.03	-5.78	-4.9	-3.51	-1.9	-0.32	1.04	2.13	3.02	3.75	4.29	4.55	4.45	4.01	3.41	2.84	2.47	2.3	2.21	2.06	1.76	1.33	0.86	0.48	0.26	0.2	0.26	0.4	0.62	0.9	1.23	1.51	1.64	1.53	1.2	0.72	0.17	-0.37	-0.93	-1.58	-2.37	-3.28	-4.17	-4.85	-5.15	-5.02	-4.49	-3.66	-2.63	-1.5	-0.37	0.61	1.31	1.64	1.6	1.31	0.97	0.69	0.53	0.44	0.32	0.15	-0.04	-0.18	-0.2	-0.05	0.25	0.63	1.01	1.32	1.5	1.54	1.46	1.32	1.17	1	0.77	0.41	-0.12	-0.8	-1.56	-2.34	-3.08	-3.75	-4.25	-4.5	-4.37	-3.84	-2.96	-1.87	-0.72	0.37	1.33	2.13	2.76	3.19	3.42	3.41	3.21	2.88	2.5	2.14	1.86	1.7	1.64	1.68	1.75	1.8	1.78	1.69	1.55	1.38	1.22	1.07	0.95	0.87	0.83	0.78	0.61	0.19	-0.57	-1.68	-3.03
0.44	0.32	0.15	-0.04	-0.18	-0.2	-0.05	0.25	0.63	1.01	1.32	1.5	1.54	1.46	1.32	1.17	1	0.77	0.41	-0.12	-0.8	-1.56	-2.34	-3.08	-3.75	-4.25	-4.5	-4.37	-3.84	-2.96	-1.87	-0.72	0.37	1.33	2.13	2.76	3.19	3.42	3.41	3.21	2.88	2.5	2.14	1.86	1.7	1.64	1.68	1.75	1.8	1.78	1.69	1.55	1.38	1.22	1.07	0.95	0.87	0.83	0.78	0.61	0.19	-0.57	-1.68	-3.03	-4.37	-5.4	-5.9	-5.77	-5.04	-3.86	-2.46	-1.01	0.33	1.43	2.22	2.65	2.76	2.63	2.4	2.18	2	1.82	1.55	1.13	0.6	0.06	-0.36	-0.55	-0.49	-0.22	0.17	0.61	1.04	1.4	1.58	1.51	1.11	0.4	-0.53	-1.54	-2.53	-3.42	-4.18	-4.78	-5.15	-5.21	-4.86	-4.12	-3.1	-2	-1	-0.19	0.44	1	1.56	2.13	2.63	2.92	2.92	2.63	2.15	1.63	1.22	0.98	0.91	0.96	1.06	1.18
-4.37	-5.4	-5.9	-5.77	-5.04	-3.86	-2.46	-1.01	0.33	1.43	2.22	2.65	2.76	2.63	2.4	2.18	2	1.82	1.55	1.13	0.6	0.06	-0.36	-0.55	-0.49	-0.22	0.17	0.61	1.04	1.4	1.58	1.51	1.11	0.4	-0.53	-1.54	-2.53	-3.42	-4.18	-4.78	-5.15	-5.21	-4.86	-4.12	-3.1	-2	-1	-0.19	0.44	1	1.56	2.13	2.63	2.92	2.92	2.63	2.15	1.63	1.22	0.98	0.91	0.96	1.06	1.18	1.31	1.47	1.69	1.92	2.1	2.16	2.03	1.68	1.13	0.41	-0.45	-1.4	-2.39	-3.38	-4.26	-4.94	-5.31	-5.28	-4.78	-3.86	-2.62	-1.24	0.07	1.17	1.98	2.54	2.9	3.13	3.26	3.3	3.25	3.13	2.95	2.73	2.48	2.2	1.89	1.55	1.24	1.01	0.9	0.91	0.97	1.03	1	0.9	0.75	0.6	0.49	0.41	0.32	0.14	-0.2	-0.76	-1.55	-2.57	-3.72	-4.85	-5.77	-6.28	-6.24	-5.66	-4.65	-3.39
1.31	1.47	1.69	1.92	2.1	2.16	2.03	1.68	1.13	0.41	-0.45	-1.4	-2.39	-3.38	-4.26	-4.94	-5.31	-5.28	-4.78	-3.86	-2.62	-1.24	0.07	1.17	1.98	2.54	2.9	3.13	3.26	3.3	3.25	3.13	2.95	2.73	2.48	2.2	1.89	1.55	1.24	1.01	0.9	0.91	0.97	1.03	1	0.9	0.75	0.6	0.49	0.41	0.32	0.14	-0.2	-0.76	-1.55	-2.57	-3.72	-4.85	-5.77	-6.28	-6.24	-5.66	-4.65	-3.39	-2.07	-0.82	0.3	1.24	1.99	2.51	2.8	2.85	2.72	2.46	2.14	1.83	1.59	1.45	1.43	1.51	1.65	1.81	1.97	2.12	2.25	2.36	2.41	2.34	2.12	1.75	1.29	0.82	0.43	0.21	0.21	0.38	0.59	0.66	0.41	-0.27	-1.35	-2.66	-3.95	-4.99	-5.6	-5.74	-5.42	-4.67	-3.57	-2.2	-0.64	0.92	2.28	3.24	3.7	3.68	3.34	2.89	2.5	2.26	2.12	2	1.81	1.52	1.15	0.8	0.54	0.43
-2.07	-0.82	0.3	1.24	1.99	2.51	2.8	2.85	2.72	2.46	2.14	1.83	1.59	1.45	1.43	1.51	1.65	1.81	1.97	2.12	2.25	2.36	2.41	2.34	2.12	1.75	1.29	0.82	0.43	0.21	0.21	0.38	0.59	0.66	0.41	-0.27	-1.35	-2.66	-3.95	-4.99	-5.6	-5.74	-5.42	-4.67	-3.57	-2.2	-0.64	0.92	2.28	3.24	3.7	3.68	3.34	2.89	2.5	2.26	2.12	2	1.81	1.52	1.15	0.8	0.54	0.43	0.52	0.8	1.26	1.82	2.36	2.74	2.84	2.65	2.24	1.78	1.4	1.15	0.96	0.67	0.16	-0.57	-1.39	-2.12	-2.67	-3.06	-3.42	-3.87	-4.37	-4.77	-4.82	-4.36	-3.4	-2.13	-0.77	0.48	1.53	2.38	3.01	3.4	3.46	3.2	2.72	2.15	1.69	1.4	1.23	1.09	0.86	0.53	0.17	-0.1	-0.16	-0	0.28	0.54	0.66	0.58	0.36	0.12	-0.02	0.05	0.31	0.69	0.99	1.02	0.61	-0.3	-1.64	-3.2
0.52	0.8	1.26	1.82	2.36	2.74	2.84	2.65	2.24	1.78	1.4	1.15	0.96	0.67	0.16	-0.57	-1.39	-2.12	-2.67	-3.06	-3.42	-3.87	-4.37	-4.77	-4.82	-4.36	-3.4	-2.13	-0.77	0.48	1.53	2.38	3.01	3.4	3.46	3.2	2.72	2.15	1.69	1.4	1.23	1.09	0.86	0.53	0.17	-0.1	-0.16	-0	0.28	0.54	0.66	0.58	0.36	0.12	-0.02	0.05	0.31	0.69	0.99	1.02	0.61	-0.3	-1.64	-3.2	-4.66	-5.7	-6.14	-5.91	-5.13	-4.01	-2.76	-1.53	-0.37	0.67	1.58	2.28	2.73	2.89	2.76	2.42	1.99	1.58	1.27	1.09	1.04	1.08	1.13	1.18	1.2	1.22	1.2	1.16	1.06	0.9	0.71	0.54	0.42	0.37	0.34	0.24	0.02	-0.37	-0.91	-1.54	-2.2	-2.86	-3.48	-4	-4.34	-4.43	-4.23	-3.73	-2.98	-2.04	-0.99	0.09	1.11	1.97	2.57	2.83	2.78	2.5	2.13	1.79	1.54	1.39	1.27	1.16
-4.66	-5.7	-6.14	-5.91	-5.13	-4.01	-2.76	-1.53	-0.37	0.67	1.58	2.28	2.73	2.89	2.76	2.42	1.99	1.58	1.27	1.09	1.04	1.08	1.13	1.18	1.2	1.22	1.2	1.16	1.06	0.9	0.71	0.54	0.42	0.37	0.34	0.24	0.02	-0.37	-0.91	-1.54	-2.2	-2.86	-3.48	-4	-4.34	-4.43	-4.23	-3.73	-2.98	-2.04	-0.99	0.09	1.11	1.97	2.57	2.83	2.78	2.5	2.13	1.79	1.54	1.39	1.27	1.16	1.03	0.89	0.74	0.6	0.45	0.3	0.18	0.17	0.36	0.77	1.33	1.88	2.22	2.21	1.82	1.09	0.12	-1.02	-2.29	-3.63	-4.93	-5.97	-6.56	-6.53	-5.92	-4.89	-3.68	-2.46	-1.31	-0.23	0.82	1.8	2.61	3.15	3.32	3.15	2.76	2.33	1.98	1.8	1.76	1.77	1.73	1.59	1.36	1.11	0.93	0.9	1.01	1.22	1.46	1.68	1.85	1.93	1.91	1.75	1.44	1	0.51	0.05	-0.35	-0.71	-1.15	-1.81
1.03	0.89	0.74	0.6	0.45	0.3	0.18	0.17	0.36	0.77	1.33	1.88	2.22	2.21	1.82	1.09	0.12	-1.02	-2.29	-3.63	-4.93	-5.97	-6.56	-6.53	-5.92	-4.89	-3.68	-2.46	-1.31	-0.23	0.82	1.8	2.61	3.15	3.32	3.15	2.76	2.33	1.98	1.8	1.76	1.77	1.73	1.59	1.36	1.11	0.93	0.9	1.01	1.22	1.46	1.68	1.85	1.93	1.91	1.75	1.44	1	0.51	0.05	-0.35	-0.71	-1.15	-1.81	-2.75	-3.89	-5.04	-5.9	-6.25	-5.96	-5.06	-3.7	-2.11	-0.49	0.95	2.08	2.8	3.12	3.12	2.95	2.73	2.51	2.28	1.99	1.63	1.2	0.8	0.51	0.4	0.44	0.59	0.8	1.04	1.28	1.48	1.62	1.67	1.61	1.48	1.31	1.1	0.85	0.52	0.09	-0.44	-1.01	-1.6	-2.22	-2.91	-3.69	-4.51	-5.19	-5.53	-5.35	-4.63	-3.47	-2.12	-0.78	0.42	1.43	2.25	2.86	3.22	3.26	2.98	2.43	1.77	1.18
-2.75	-3.89	-5.04	-5.9	-6.25	-5.96	-5.06	-3.7	-2.11	-0.49	0.95	2.08	2.8	3.12	3.12	2.95	2.73	2.51	2.28	1.99	1.63	1.2	0.8	0.51	0.4	0.44	0.59	0.8	1.04	1.28	1.48	1.62	1.67	1.61	1.48	1.31	1.1	0.85	0.52	0.09	-0.44	-1.01	-1.6	-2.22	-2.91	-3.69	-4.51	-5.19	-5.53	-5.35	-4.63	-3.47	-2.12	-0.78	0.42	1.43	2.25	2.86	3.22	3.26	2.98	2.43	1.77	1.18	0.77	0.6	0.58	0.59	0.51	0.31	0.03	-0.2	-0.23	-0.02	0.4	0.86	1.21	1.36	1.35	1.25	1.18	1.14	1.07	0.88	0.49	-0.13	-0.92	-1.8	-2.69	-3.54	-4.29	-4.87	-5.14	-4.99	-4.37	-3.34	-2.08	-0.8	0.31	1.15	1.71	2.06	2.27	2.38	2.39	2.28	2.06	1.8	1.56	1.35	1.19	1.06	0.95	0.89	0.88	0.93	0.96	0.93	0.83	0.72	0.69	0.81	1.05	1.3	1.43	1.33	1.01	0.57
0.77	0.6	0.58	0.59	0.51	0.31	0.03	-0.2	-0.23	-0.02	0.4	0.86	1.21	1.36	1.35	1.25	1.18	1.14	1.07	0.88	0.49	-0.13	-0.92	-1.8	-2.69	-3.54	-4.29	-4.87	-5.14	-4.99	-4.37	-3.34	-2.08	-0.8	0.31	1.15	1.71	2.06	2.27	2.38	2.39	2.28	2.06	1.8	1.56	1.35	1.19	1.06	0.95	0.89	0.88	0.93	0.96	0.93	0.83	0.72	0.69	0.81	1.05	1.3	1.43	1.33	1.01	0.57	0.07	-0.47	-1.12	-1.94	-2.92	-3.94	-4.8	-5.32	-5.36	-4.89	-4.03	-2.93	-1.79	-0.73	0.15	0.85	1.38	1.76	1.98	2.03	1.94	1.76	1.58	1.45	1.37	1.3	1.19	1.05	0.93	0.92	1.04	1.23	1.4	1.46	1.39	1.23	1.04	0.9	0.82	0.82	0.87	0.95	1	0.89	0.53	-0.18	-1.22	-2.46	-3.73	-4.82	-5.59	-5.94	-5.86	-5.36	-4.5	-3.39	-2.12	-0.83	0.39	1.45	2.28	2.84	3.1	3.09
0.07	-0.47	-1.12	-1.94	-2.92	-3.94	-4.8	-5.32	-5.36	-4.89	-4.03	-2.93	-1.79	-0.73	0.15	0.85	1.38	1.76	1.98	2.03	1.94	1.76	1.58	1.45	1.37	1.3	1.19	1.05	0.93	0.92	1.04	1.23	1.4	1.46	1.39	1.23	1.04	0.9	0.82	0.82	0.87	0.95	1	0.89	0.53	-0.18	-1.22	-2.46	-3.73	-4.82	-5.59	-5.94	-5.86	-5.36	-4.5	-3.39	-2.12	-0.83	0.39	1.45	2.28	2.84	3.1	3.09	2.85	2.47	2.03	1.6	1.26	1.06	1.02	1.13	1.31	1.47	1.53	1.52	1.51	1.62	1.92	2.34	2.74	2.95	2.86	2.48	1.93	1.34	0.82	0.41	0.11	-0.11	-0.32	-0.63	-1.17	-2.03	-3.17	-4.43	-5.5	-6.11	-6.1	-5.48	-4.41	-3.1	-1.74	-0.42	0.77	1.79	2.55	2.99	3.11	2.99	2.74	2.44	2.15	1.84	1.5	1.16	0.92	0.89	1.09	1.44	1.82	2.08	2.18	2.18	2.17	2.2	2.24	2.2
2.85	2.47	2.03	1.6	1.26	1.06	1.02	1.13	1.31	1.47	1.53	1.52	1.51	1.62	1.92	2.34	2.74	2.95	2.86	2.48	1.93	1.34	0.82	0.41	0.11	-0.11	-0.32	-0.63	-1.17	-2.03	-3.17	-4.43	-5.5	-6.11	-6.1	-5.48	-4.41	-3.1	-1.74	-0.42	0.77	1.79	2.55	2.99	3.11	2.99	2.74	2.44	2.15	1.84	1.5	1.16	0.92	0.89	1.09	1.44	1.82	2.08	2.18	2.18	2.17	2.2	2.24	2.2	1.97	1.54	0.99	0.49	0.19	0.1	0.15	0.15	-0.05	-0.54	-1.33	-2.3	-3.31	-4.2	-4.82	-5.05	-4.87	-4.29	-3.41	-2.39	-1.33	-0.32	0.59	1.38	2.02	2.47	2.68	2.64	2.38	1.98	1.54	1.14	0.81	0.58	0.43	0.38	0.44	0.59	0.77	0.91	0.94	0.85	0.71	0.62	0.66	0.84	1.1	1.31	1.37	1.23	0.95	0.59	0.18	-0.29	-0.83	-1.48	-2.2	-2.93	-3.58	-4.04	-4.23	-4.1	-3.61	-2.82
1.97	1.54	0.99	0.49	0.19	0.1	0.15	0.15	-0.05	-0.54	-1.33	-2.3	-3.31	-4.2	-4.82	-5.05	-4.87	-4.29	-3.41	-2.39	-1.33	-0.32	0.59	1.38	2.02	2.47	2.68	2.64	2.38	1.98	1.54	1.14	0.81	0.58	0.43	0.38	0.44	0.59	0.77	0.91	0.94	0.85	0.71	0.62	0.66	0.84	1.1	1.31	1.37	1.23	0.95	0.59	0.18	-0.29	-0.83	-1.48	-2.2	-2.93	-3.58	-4.04	-4.23	-4.1	-3.61	-2.82	-1.85	-0.86	-0.01	0.62	1.02	1.28	1.52	1.81	2.14	2.41	2.5	2.34	1.91	1.29	0.61	0.02	-0.36	-0.44	-0.19	0.35	1.07	1.8	2.37	2.67	2.68	2.45	2.07	1.6	1.06	0.49	-0.08	-0.53	-0.8	-0.94	-1.1	-1.49	-2.25	-3.33	-4.47	-5.36	-5.74	-5.58	-5.03	-4.31	-3.57	-2.81	-1.92	-0.83	0.43	1.68	2.69	3.25	3.29	2.92	2.34	1.76	1.31	1.01	0.81	0.66	0.56	0.56	0.72	1.09
-1.85	-0.86	-0.01	0.62	1.02	1.28	1.52	1.81	2.14	2.41	2.5	2.34	1.91	1.29	0.61	0.02	-0.36	-0.44	-0.19	0.35	1.07	1.8	2.37	2.67	2.68	2.45	2.07	1.6	1.06	0.49	-0.08	-0.53	-0.8	-0.94	-1.1	-1.49	-2.25	-3.33	-4.47	-5.36	-5.74	-5.58	-5.03	-4.31	-3.57	-2.81	-1.92	-0.83	0.43	1.68	2.69	3.25	3.29	2.92	2.34	1.76	1.31	1.01	0.81	0.66	0.56	0.56	0.72	1.09	1.59	2.08	2.39	2.41	2.1	1.56	0.9	0.3	-0.13	-0.31	-0.28	-0.14	-0.03	-0.1	-0.42	-0.99	-1.75	-2.61	-3.5	-4.36	-5.13	-5.7	-5.91	-5.64	-4.87	-3.69	-2.31	-0.97	0.18	1.11	1.83	2.38	2.75	2.88	2.73	2.34	1.82	1.33	1.03	0.94	1.02	1.17	1.31	1.41	1.5	1.57	1.6	1.57	1.41	1.15	0.82	0.51	0.29	0.16	0.09	0.02	-0.08	-0.24	-0.45	-0.72	-1.09	-1.6	-2.25	-3
1.59	2.08	2.39	2.41	2.1	1.56	0.9	0.3	-0.13	-0.31	-0.28	-0.14	-0.03	-0.1	-0.42	-0.99	-1.75	-2.61	-3.5	-4.36	-5.13	-5.7	-5.91	-5.64	-4.87	-3.69	-2.31	-0.97	0.18	1.11	1.83	2.38	2.75	2.88	2.73	2.34	1.82	1.33	1.03	0.94	1.02	1.17	1.31	1.41	1.5	1.57	1.6	1.57	1.41	1.15	0.82	0.51	0.29	0.16	0.09	0.02	-0.08	-0.24	-0.45	-0.72	-1.09	-1.6	-2.25	-3	-3.74	-4.31	-4.58	-4.47	-3.96	-3.14	-2.1	-1.03	-0.03	0.78	1.39	1.79	2.02	2.07	1.95	1.66	1.25	0.84	0.52	0.41	0.55	0.86	1.24	1.57	1.76	1.84	1.84	1.85	1.92	2.03	2.12	2.12	1.94	1.59	1.07	0.48	-0.11	-0.64	-1.07	-1.45	-1.83	-2.28	-2.83	-3.43	-3.99	-4.37	-4.47	-4.2	-3.6	-2.75	-1.76	-0.77	0.16	0.98	1.66	2.19	2.54	2.68	2.61	2.34	1.94	1.53	1.24	1.14
-3.74	-4.31	-4.58	-4.47	-3.96	-3.14	-2.1	-1.03	-0.03	0.78	1.39	1.79	2.02	2.07	1.95	1.66	1.25	0.84	0.52	0.41	0.55	0.86	1.24	1.57	1.76	1.84	1.84	1.85	1.92	2.03	2.12	2.12	1.94	1.59	1.07	0.48	-0.11	-0.64	-1.07	-1.45	-1.83	-2.28	-2.83	-3.43	-3.99	-4.37	-4.47	-4.2	-3.6	-2.75	-1.76	-0.77	0.16	0.98	1.66	2.19	2.54	2.68	2.61	2.34	1.94	1.53	1.24	1.14	1.22	1.41	1.59	1.65	1.57	1.43	1.34	1.38	1.57	1.82	1.99	1.96	1.65	1.11	0.43	-0.23	-0.81	-1.3	-1.75	-2.27	-2.91	-3.66	-4.45	-5.11	-5.51	-5.53	-5.15	-4.39	-3.3	-1.97	-0.53	0.86	2.01	2.78	3.08	2.95	2.51	1.95	1.42	1.05	0.89	0.91	1.08	1.32	1.58	1.81	1.99	2.1	2.14	2.15	2.14	2.14	2.13	2.1	1.97	1.73	1.39	1.05	0.79	0.65	0.56	0.41	0.11	-0.35
1.22	1.41	1.59	1.65	1.57	1.43	1.34	1.38	1.57	1.82	1.99	1.96	1.65	1.11	0.43	-0.23	-0.81	-1.3	-1.75	-2.27	-2.91	-3.66	-4.45	-5.11	-5.51	-5.53	-5.15	-4.39	-3.3	-1.97	-0.53	0.86	2.01	2.78	3.08	2.95	2.51	1.95	1.42	1.05	0.89	0.91	1.08	1.32	1.58	1.81	1.99	2.1	2.14	2.15	2.14	2.14	2.13	2.1	1.97	1.73	1.39	1.05	0.79	0.65	0.56	0.41	0.11	-0.35	-0.93	-1.54	-2.16	-2.79	-3.48	-4.2	-4.82	-5.15	-5.04	-4.43	-3.42	-2.2	-0.98	0.1	0.97	1.61	2.04	2.26	2.26	2.05	1.68	1.24	0.85	0.63	0.61	0.77	1.06	1.39	1.71	2	2.25	2.45	2.58	2.61	2.54	2.43	2.35	2.33	2.37	2.42	2.36	2.14	1.74	1.22	0.68	0.2	-0.2	-0.55	-0.89	-1.29	-1.78	-2.34	-2.97	-3.63	-4.25	-4.75	-5.02	-4.91	-4.38	-3.43	-2.23	-0.96	0.17	1.02
-0.93	-1.54	-2.16	-2.79	-3.48	-4.2	-4.82	-5.15	-5.04	-4.43	-3.42	-2.2	-0.98	0.1	0.97	1.61	2.04	2.26	2.26	2.05	1.68	1.24	0.85	0.63	0.61	0.77	1.06	1.39	1.71	2	2.25	2.45	2.58	2.61	2.54	2.43	2.35	2.33	2.37	2.42	2.36	2.14	1.74	1.22	0.68	0.2	-0.2	-0.55	-0.89	-1.29	-1.78	-2.34	-2.97	-3.63	-4.25	-4.75	-5.02	-4.91	-4.38	-3.43	-2.23	-0.96	0.17	1.02	1.59	1.94	2.14	2.26	2.27	2.17	1.97	1.74	1.6	1.6	1.72	1.84	1.84	1.66	1.36	1.08	0.94	1	1.22	1.44	1.56	1.48	1.2	0.8	0.38	0.04	-0.11	-0.08	0.1	0.3	0.36	0.2	-0.19	-0.77	-1.43	-2.09	-2.76	-3.42	-4.04	-4.51	-4.7	-4.5	-3.94	-3.11	-2.18	-1.25	-0.38	0.43	1.19	1.84	2.31	2.52	2.45	2.18	1.81	1.49	1.27	1.17	1.16	1.18	1.23	1.32	1.43	1.53
1.59	1.94	2.14	2.26	2.27	2.17	1.97	1.74	1.6	1.6	1.72	1.84	1.84	1.66	1.36	1.08	0.94	1	1.22	1.44	1.56	1.48	1.2	0.8	0.38	0.04	-0.11	-0.08	0.1	0.3	0.36	0.2	-0.19	-0.77	-1.43	-2.09	-2.76	-3.42	-4.04	-4.51	-4.7	-4.5	-3.94	-3.11	-2.18	-1.25	-0.38	0.43	1.19	1.84	2.31	2.52	2.45	2.18	1.81	1.49	1.27	1.17	1.16	1.18	1.23	1.32	1.43	1.53	1.57	1.52	1.37	1.16	0.95	0.78	0.68	0.65	0.64	0.63	0.55	0.39	0.16	-0.14	-0.46	-0.81	-1.2	-1.69	-2.31	-3.04	-3.76	-4.29	-4.49	-4.29	-3.72	-2.91	-2.02	-1.17	-0.47	0.02	0.32	0.49	0.63	0.83	1.14	1.51	1.84	1.99	1.91	1.67	1.39	1.25	1.31	1.5	1.67	1.71	1.59	1.41	1.28	1.28	1.38	1.48	1.48	1.31	1.02	0.67	0.33	0.05	-0.17	-0.34	-0.49	-0.69	-1.02	-1.55
1.57	1.52	1.37	1.16	0.95	0.78	0.68	0.65	0.64	0.63	0.55	0.39	0.16	-0.14	-0.46	-0.81	-1.2	-1.69	-2.31	-3.04	-3.76	-4.29	-4.49	-4.29	-3.72	-2.91	-2.02	-1.17	-0.47	0.02	0.32	0.49	0.63	0.83	1.14	1.51	1.84	1.99	1.91	1.67	1.39	1.25	1.31	1.5	1.67	1.71	1.59	1.41	1.28	1.28	1.38	1.48	1.48	1.31	1.02	0.67	0.33	0.05	-0.17	-0.34	-0.49	-0.69	-1.02	-1.55	-2.27	-3.09	-3.87	-4.43	-4.69	-4.62	-4.27	-3.72	-3.06	-2.36	-1.67	-1	-0.36	0.28	0.93	1.57	2.17	2.62	2.86	2.85	2.58	2.14	1.63	1.19	0.92	0.86	0.94	1.06	1.09	1.01	0.84	0.66	0.55	0.51	0.5	0.49	0.49	0.56	0.75	1.07	1.42	1.67	1.7	1.43	0.95	0.38	-0.1	-0.41	-0.55	-0.63	-0.83	-1.3	-2.09	-3.09	-4.07	-4.78	-5	-4.65	-3.81	-2.68	-1.51	-0.5	0.25	0.76
-2.27	-3.09	-3.87	-4.43	-4.69	-4.62	-4.27	-3.72	-3.06	-2.36	-1.67	-1	-0.36	0.28	0.93	1.57	2.17	2.62	2.86	2.85	2.58	2.14	1.63	1.19	0.92	0.86	0.94	1.06	1.09	1.01	0.84	0.66	0.55	0.51	0.5	0.49	0.49	0.56	0.75	1.07	1.42	1.67	1.7	1.43	0.95	0.38	-0.1	-0.41	-0.55	-0.63	-0.83	-1.3	-2.09	-3.09	-4.07	-4.78	-5	-4.65	-3.81	-2.68	-1.51	-0.5	0.25	0.76	1.15	1.5	1.86	2.17	2.32	2.23	1.89	1.4	0.91	0.55	0.37	0.33	0.34	0.34	0.35	0.43	0.65	0.98	1.35	1.58	1.57	1.26	0.76	0.2	-0.2	-0.33	-0.17	0.17	0.53	0.73	0.69	0.42	-0.01	-0.5	-1.01	-1.58	-2.26	-3.05	-3.85	-4.47	-4.71	-4.45	-3.74	-2.73	-1.63	-0.61	0.31	1.14	1.91	2.56	3	3.09	2.8	2.21	1.49	0.85	0.41	0.21	0.17	0.22	0.31	0.44	0.66	0.99
1.15	1.5	1.86	2.17	2.32	2.23	1.89	1.4	0.91	0.55	0.37	0.33	0.34	0.34	0.35	0.43	0.65	0.98	1.35	1.58	1.57	1.26	0.76	0.2	-0.2	-0.33	-0.17	0.17	0.53	0.73	0.69	0.42	-0.01	-0.5	-1.01	-1.58	-2.26	-3.05	-3.85	-4.47	-4.71	-4.45	-3.74	-2.73	-1.63	-0.61	0.31	1.14	1.91	2.56	3	3.09	2.8	2.21	1.49	0.85	0.41	0.21	0.17	0.22	0.31	0.44	0.66	0.99	1.4	1.79	2.05	2.1	1.93	1.57	1.13	0.69	0.31	0	-0.25	-0.47	-0.7	-0.94	-1.22	-1.59	-2.07	-2.66	-3.31	-3.94	-4.42	-4.66	-4.59	-4.18	-3.44	-2.44	-1.28	-0.11	0.92	1.71	2.21	2.44	2.45	2.31	2.04	1.63	1.11	0.57	0.13	-0.07	0.04	0.41	0.9	1.34	1.63	1.71	1.63	1.46	1.3	1.18	1.13	1.11	1.08	1.01	0.88	0.73	0.59	0.48	0.36	0.15	-0.22	-0.78	-1.49	-2.24
1.4	1.79	2.05	2.1	1.93	1.57	1.13	0.69	0.31	0	-0.25	-0.47	-0.7	-0.94	-1.22	-1.59	-2.07	-2.66	-3.31	-3.94	-4.42	-4.66	-4.59	-4.18	-3.44	-2.44	-1.28	-0.11	0.92	1.71	2.21	2.44	2.45	2.31	2.04	1.63	1.11	0.57	0.13	-0.07	0.04	0.41	0.9	1.34	1.63	1.71	1.63	1.46	1.3	1.18	1.13	1.11	1.08	1.01	0.88	0.73	0.59	0.48	0.36	0.15	-0.22	-0.78	-1.49	-2.24	-2.91	-3.41	-3.74	-3.92	-3.95	-3.82	-3.49	-2.94	-2.18	-1.31	-0.38	0.53	1.35	2.03	2.5	2.68	2.55	2.16	1.63	1.13	0.81	0.73	0.88	1.14	1.39	1.51	1.47	1.29	1.09	1	1.1	1.38	1.7	1.88	1.78	1.39	0.83	0.32	0.04	0.07	0.35	0.67	0.86	0.81	0.5	0.02	-0.56	-1.25	-2.08	-3.07	-4.15	-5.08	-5.59	-5.45	-4.61	-3.25	-1.71	-0.34	0.66	1.22	1.45	1.48	1.42	1.32
-2.91	-3.41	-3.74	-3.92	-3.95	-3.82	-3.49	-2.94	-2.18	-1.31	-0.38	0.53	1.35	2.03	2.5	2.68	2.55	2.16	1.63	1.13	0.81	0.73	0.88	1.14	1.39	1.51	1.47	1.29	1.09	1	1.1	1.38	1.7	1.88	1.78	1.39	0.83	0.32	0.04	0.07	0.35	0.67	0.86	0.81	0.5	0.02	-0.56	-1.25	-2.08	-3.07	-4.15	-5.08	-5.59	-5.45	-4.61	-3.25	-1.71	-0.34	0.66	1.22	1.45	1.48	1.42	1.32	1.23	1.19	1.24	1.4	1.66	1.91	2.04	1.97	1.7	1.32	0.94	0.65	0.5	0.46	0.51	0.65	0.87	1.17	1.5	1.74	1.8	1.62	1.22	0.71	0.19	-0.29	-0.76	-1.3	-1.95	-2.67	-3.35	-3.85	-4.06	-3.95	-3.58	-3.04	-2.43	-1.79	-1.16	-0.52	0.13	0.77	1.37	1.86	2.21	2.39	2.39	2.23	1.93	1.52	1.06	0.59	0.21	-0.03	-0.08	0.06	0.34	0.67	0.94	1.11	1.14	1.08	0.99	0.91
1.23	1.19	1.24	1.4	1.66	1.91	2.04	1.97	1.7	1.32	0.94	0.65	0.5	0.46	0.51	0.65	0.87	1.17	1.5	1.74	1.8	1.62	1.22	0.71	0.19	-0.29	-0.76	-1.3	-1.95	-2.67	-3.35	-3.85	-4.06	-3.95	-3.58	-3.04	-2.43	-1.79	-1.16	-0.52	0.13	0.77	1.37	1.86	2.21	2.39	2.39	2.23	1.93	1.52	1.06	0.59	0.21	-0.03	-0.08	0.06	0.34	0.67	0.94	1.11	1.14	1.08	0.99	0.91	0.84	0.78	0.68	0.55	0.38	0.15	-0.19	-0.72	-1.45	-2.35	-3.26	-4	-4.42	-4.47	-4.18	-3.61	-2.81	-1.82	-0.7	0.45	1.45	2.18	2.58	2.7	2.64	2.48	2.26	1.95	1.55	1.11	0.71	0.44	0.36	0.45	0.62	0.78	0.86	0.87	0.87	0.95	1.14	1.4	1.64	1.74	1.65	1.42	1.15	0.95	0.85	0.76	0.53	0.02	-0.76	-1.7	-2.58	-3.24	-3.61	-3.75	-3.77	-3.76	-3.74	-3.65	-3.41	-3
0.84	0.78	0.68	0.55	0.38	0.15	-0.19	-0.72	-1.45	-2.35	-3.26	-4	-4.42	-4.47	-4.18	-3.61	-2.81	-1.82	-0.7	0.45	1.45	2.18	2.58	2.7	2.64	2.48	2.26	1.95	1.55	1.11	0.71	0.44	0.36	0.45	0.62	0.78	0.86	0.87	0.87	0.95	1.14	1.4	1.64	1.74	1.65	1.42	1.15	0.95	0.85	0.76	0.53	0.02	-0.76	-1.7	-2.58	-3.24	-3.61	-3.75	-3.77	-3.76	-3.74	-3.65	-3.41	-3	-2.44	-1.83	-1.25	-0.76	-0.39	-0.14	-0.02	-0.02	-0.09	-0.16	-0.13	0.08	0.48	1.02	1.59	2.05	2.33	2.42	2.38	2.3	2.29	2.38	2.57	2.76	2.85	2.75	2.42	1.92	1.36	0.85	0.45	0.16	-0.08	-0.34	-0.71	-1.19	-1.79	-2.45	-3.12	-3.72	-4.17	-4.42	-4.41	-4.11	-3.5	-2.61	-1.49	-0.25	0.96	1.98	2.64	2.86	2.69	2.28	1.83	1.51	1.4	1.45	1.57	1.66	1.67	1.58	1.42	1.2
-2.44	-1.83	-1.25	-0.76	-0.39	-0.14	-0.02	-0.02	-0.09	-0.16	-0.13	0.08	0.48	1.02	1.59	2.05	2.33	2.42	2.38	2.3	2.29	2.38	2.57	2.76	2.85	2.75	2.42	1.92	1.36	0.85	0.45	0.16	-0.08	-0.34	-0.71	-1.19	-1.79	-2.45	-3.12	-3.72	-4.17	-4.42	-4.41	-4.11	-3.5	-2.61	-1.49	-0.25	0.96	1.98	2.64	2.86	2.69	2.28	1.83	1.51	1.4	1.45	1.57	1.66	1.67	1.58	1.42	1.2	0.94	0.68	0.52	0.57	0.91	1.53	2.26	2.83	3.03	2.74	2.04	1.16	0.33	-0.27	-0.59	-0.71	-0.74	-0.78	-0.86	-0.99	-1.2	-1.49	-1.88	-2.36	-2.87	-3.31	-3.56	-3.56	-3.28	-2.75	-2.07	-1.3	-0.54	0.19	0.83	1.38	1.77	2	2.04	1.92	1.68	1.38	1.08	0.83	0.67	0.63	0.71	0.86	1.03	1.12	1.09	0.96	0.8	0.73	0.77	0.89	0.99	0.97	0.8	0.53	0.28	0.1	0.02	-0.03
0.94	0.68	0.52	0.57	0.91	1.53	2.26	2.83	3.03	2.74	2.04	1.16	0.33	-0.27	-0.59	-0.71	-0.74	-0.78	-0.86	-0.99	-1.2	-1.49	-1.88	-2.36	-2.87	-3.31	-3.56	-3.56	-3.28	-2.75	-2.07	-1.3	-0.54	0.19	0.83	1.38	1.77	2	2.04	1.92	1.68	1.38	1.08	0.83	0.67	0.63	0.71	0.86	1.03	1.12	1.09	0.96	0.8	0.73	0.77	0.89	0.99	0.97	0.8	0.53	0.28	0.1	0.02	-0.03	-0.13	-0.33	-0.61	-0.95	-1.32	-1.73	-2.22	-2.79	-3.37	-3.85	-4.07	-3.92	-3.36	-2.46	-1.4	-0.34	0.56	1.22	1.62	1.8	1.8	1.66	1.43	1.14	0.88	0.71	0.7	0.83	1.04	1.22	1.31	1.31	1.28	1.29	1.37	1.48	1.53	1.49	1.37	1.27	1.28	1.4	1.54	1.52	1.23	0.62	-0.18	-1.02	-1.79	-2.43	-3	-3.54	-4.02	-4.37	-4.51	-4.4	-4.09	-3.66	-3.16	-2.59	-1.93	-1.15	-0.29	0.56
-0.13	-0.33	-0.61	-0.95	-1.32	-1.73	-2.22	-2.79	-3.37	-3.85	-4.07	-3.92	-3.36	-2.46	-1.4	-0.34	0.56	1.22	1.62	1.8	1.8	1.66	1.43	1.14	0.88	0.71	0.7	0.83	1.04	1.22	1.31	1.31	1.28	1.29	1.37	1.48	1.53	1.49	1.37	1.27	1.28	1.4	1.54	1.52	1.23	0.62	-0.18	-1.02	-1.79	-2.43	-3	-3.54	-4.02	-4.37	-4.51	-4.4	-4.09	-3.66	-3.16	-2.59	-1.93	-1.15	-0.29	0.56	1.28	1.79	2.05	2.09	1.96	1.72	1.45	1.17	0.92	0.69	0.49	0.31	0.2	0.21	0.38	0.72	1.18	1.66	2.1	2.45	2.69	2.79	2.7	2.38	1.85	1.2	0.59	0.13	-0.15	-0.34	-0.58	-0.97	-1.54	-2.2	-2.81	-3.27	-3.52	-3.56	-3.42	-3.09	-2.59	-1.94	-1.17	-0.37	0.39	1.04	1.53	1.83	1.94	1.9	1.74	1.52	1.29	1.1	0.99	0.99	1.06	1.19	1.28	1.29	1.19	1.02	0.85	0.79
1.28	1.79	2.05	2.09	1.96	1.72	1.45	1.17	0.92	0.69	0.49	0.31	0.2	0.21	0.38	0.72	1.18	1.66	2.1	2.45	2.69	2.79	2.7	2.38	1.85	1.2	0.59	0.13	-0.15	-0.34	-0.58	-0.97	-1.54	-2.2	-2.81	-3.27	-3.52	-3.56	-3.42	-3.09	-2.59	-1.94	-1.17	-0.37	0.39	1.04	1.53	1.83	1.94	1.9	1.74	1.52	1.29	1.1	0.99	0.99	1.06	1.19	1.28	1.29	1.19	1.02	0.85	0.79	0.9	1.17	1.5	1.78	1.86	1.71	1.32	0.79	0.22	-0.28	-0.63	-0.81	-0.85	-0.82	-0.86	-1.08	-1.56	-2.29	-3.14	-3.95	-4.53	-4.75	-4.55	-3.94	-2.97	-1.75	-0.43	0.8	1.74	2.24	2.32	2.11	1.81	1.63	1.63	1.77	1.91	1.9	1.7	1.31	0.86	0.46	0.21	0.16	0.31	0.6	0.98	1.38	1.75	1.99	2.04	1.85	1.42	0.82	0.15	-0.45	-0.92	-1.22	-1.39	-1.46	-1.51	-1.61	-1.84	-2.27
0.9	1.17	1.5	1.78	1.86	1.71	1.32	0.79	0.22	-0.28	-0.63	-0.81	-0.85	-0.82	-0.86	-1.08	-1.56	-2.29	-3.14	-3.95	-4.53	-4.75	-4.55	-3.94	-2.97	-1.75	-0.43	0.8	1.74	2.24	2.32	2.11	1.81	1.63	1.63	1.77	1.91	1.9	1.7	1.31	0.86	0.46	0.21	0.16	0.31	0.6	0.98	1.38	1.75	1.99	2.04	1.85	1.42	0.82	0.15	-0.45	-0.92	-1.22	-1.39	-1.46	-1.51	-1.61	-1.84	-2.27	-2.93	-3.7	-4.36	-4.67	-4.43	-3.66	-2.54	-1.36	-0.34	0.39	0.88	1.23	1.51	1.77	1.97	2.05	2.01	1.85	1.6	1.28	0.94	0.62	0.41	0.36	0.51	0.84	1.25	1.66	1.97	2.14	2.17	2.08	1.86	1.53	1.11	0.66	0.25	-0.08	-0.29	-0.45	-0.67	-1.07	-1.72	-2.59	-3.56	-4.42	-4.96	-5.03	-4.62	-3.81	-2.75	-1.59	-0.48	0.51	1.3	1.83	2.07	2.03	1.78	1.44	1.12	0.87	0.7	0.59
-2.93	-3.7	-4.36	-4.67	-4.43	-3.66	-2.54	-1.36	-0.34	0.39	0.88	1.23	1.51	1.77	1.97	2.05	2.01	1.85	1.6	1.28	0.94	0.62	0.41	0.36	0.51	0.84	1.25	1.66	1.97	2.14	2.17	2.08	1.86	1.53	1.11	0.66	0.25	-0.08	-0.29	-0.45	-0.67	-1.07	-1.72	-2.59	-3.56	-4.42	-4.96	-5.03	-4.62	-3.81	-2.75	-1.59	-0.48	0.51	1.3	1.83	2.07	2.03	1.78	1.44	1.12	0.87	0.7	0.59	0.55	0.59	0.77	1.1	1.5	1.86	2.07	2.07	1.92	1.72	1.6	1.6	1.72	1.84	1.84	1.64	1.19	0.54	-0.23	-1.03	-1.77	-2.45	-3.05	-3.59	-4.03	-4.31	-4.35	-4.08	-3.54	-2.85	-2.17	-1.61	-1.17	-0.74	-0.21	0.52	1.38	2.23	2.87	3.15	3.02	2.57	1.94	1.28	0.72	0.36	0.24	0.34	0.59	0.87	1.06	1.11	1.02	0.9	0.88	1.02	1.27	1.5	1.52	1.22	0.61	-0.15	-0.91	-1.51
0.55	0.59	0.77	1.1	1.5	1.86	2.07	2.07	1.92	1.72	1.6	1.6	1.72	1.84	1.84	1.64	1.19	0.54	-0.23	-1.03	-1.77	-2.45	-3.05	-3.59	-4.03	-4.31	-4.35	-4.08	-3.54	-2.85	-2.17	-1.61	-1.17	-0.74	-0.21	0.52	1.38	2.23	2.87	3.15	3.02	2.57	1.94	1.28	0.72	0.36	0.24	0.34	0.59	0.87	1.06	1.11	1.02	0.9	0.88	1.02	1.27	1.5	1.52	1.22	0.61	-0.15	-0.91	-1.51	-1.92	-2.21	-2.49	-2.8	-3.16	-3.48	-3.67	-3.64	-3.29	-2.59	-1.59	-0.4	0.79	1.76	2.37	2.57	2.44	2.13	1.79	1.54	1.4	1.32	1.23	1.1	0.92	0.74	0.61	0.57	0.62	0.73	0.87	1.01	1.15	1.33	1.57	1.83	2.02	2.04	1.79	1.26	0.51	-0.28	-0.94	-1.37	-1.55	-1.57	-1.59	-1.75	-2.12	-2.65	-3.25	-3.78	-4.14	-4.24	-4.05	-3.58	-2.83	-1.88	-0.82	0.26	1.25	2.12	2.83	3.36
-1.92	-2.21	-2.49	-2.8	-3.16	-3.48	-3.67	-3.64	-3.29	-2.59	-1.59	-0.4	0.79	1.76	2.37	2.57	2.44	2.13	1.79	1.54	1.4	1.32	1.23	1.1	0.92	0.74	0.61	0.57	0.62	0.73	0.87	1.01	1.15	1.33	1.57	1.83	2.02	2.04	1.79	1.26	0.51	-0.28	-0.94	-1.37	-1.55	-1.57	-1.59	-1.75	-2.12	-2.65	-3.25	-3.78	-4.14	-4.24	-4.05	-3.58	-2.83	-1.88	-0.82	0.26	1.25	2.12	2.83	3.36	3.68	3.76	3.57	3.15	2.57	1.97	1.45	1.05	0.78	0.62	0.56	0.57	0.68	0.84	1.04	1.23	1.38	1.47	1.5	1.44	1.28	1.03	0.71	0.41	0.18	0.06	0.02	-0.02	-0.18	-0.58	-1.26	-2.18	-3.22	-4.19	-4.86	-5.06	-4.72	-3.92	-2.85	-1.74	-0.79	-0.05	0.5	0.94	1.32	1.61	1.8	1.85	1.79	1.66	1.54	1.43	1.34	1.24	1.11	0.95	0.79	0.65	0.57	0.57	0.66	0.85	1.12	1.4
3.68	3.76	3.57	3.15	2.57	1.97	1.45	1.05	0.78	0.62	0.56	0.57	0.68	0.84	1.04	1.23	1.38	1.47	1.5	1.44	1.28	1.03	0.71	0.41	0.18	0.06	0.02	-0.02	-0.18	-0.58	-1.26	-2.18	-3.22	-4.19	-4.86	-5.06	-4.72	-3.92	-2.85	-1.74	-0.79	-0.05	0.5	0.94	1.32	1.61	1.8	1.85	1.79	1.66	1.54	1.43	1.34	1.24	1.11	0.95	0.79	0.65	0.57	0.57	0.66	0.85	1.12	1.4	1.6	1.63	1.47	1.17	0.84	0.56	0.39	0.31	0.23	0.02	-0.4	-1.08	-1.94	-2.86	-3.69	-4.31	-4.62	-4.59	-4.21	-3.5	-2.55	-1.44	-0.29	0.75	1.53	1.97	2.05	1.84	1.47	1.1	0.84	0.75	0.82	0.99	1.19	1.31	1.3	1.14	0.88	0.63	0.52	0.58	0.79	1.04	1.25	1.36	1.39	1.42	1.48	1.53	1.49	1.3	0.95	0.51	0.06	-0.37	-0.81	-1.34	-2.03	-2.87	-3.77	-4.56	-5.06	-5.14
1.6	1.63	1.47	1.17	0.84	0.56	0.39	0.31	0.23	0.02	-0.4	-1.08	-1.94	-2.86	-3.69	-4.31	-4.62	-4.59	-4.21	-3.5	-2.55	-1.44	-0.29	0.75	1.53	1.97	2.05	1.84	1.47	1.1	0.84	0.75	0.82	0.99	1.19	1.31	1.3	1.14	0.88	0.63	0.52	0.58	0.79	1.04	1.25	1.36	1.39	1.42	1.48	1.53	1.49	1.3	0.95	0.51	0.06	-0.37	-0.81	-1.34	-2.03	-2.87	-3.77	-4.56	-5.06	-5.14	-4.81	-4.14	-3.28	-2.35	-1.44	-0.57	0.25	1	1.61	1.99	2.09	1.94	1.64	1.34	1.12	1.01	0.96	0.9	0.85	0.87	1.05	1.39	1.83	2.21	2.34	2.18	1.78	1.32	0.97	0.83	0.87	0.97	1.05	1.02	0.93	0.83	0.77	0.76	0.76	0.7	0.48	0.02	-0.68	-1.55	-2.47	-3.29	-3.91	-4.25	-4.31	-4.08	-3.57	-2.81	-1.85	-0.81	0.15	0.9	1.36	1.54	1.48	1.27	0.98	0.72	0.57	0.57
-4.81	-4.14	-3.28	-2.35	-1.44	-0.57	0.25	1	1.61	1.99	2.09	1.94	1.64	1.34	1.12	1.01	0.96	0.9	0.85	0.87	1.05	1.39	1.83	2.21	2.34	2.18	1.78	1.32	0.97	0.83	0.87	0.97	1.05	1.02	0.93	0.83	0.77	0.76	0.76	0.7	0.48	0.02	-0.68	-1.55	-2.47	-3.29	-3.91	-4.25	-4.31	-4.08	-3.57	-2.81	-1.85	-0.81	0.15	0.9	1.36	1.54	1.48	1.27	0.98	0.72	0.57	0.57	0.72	0.95	1.15	1.24	1.23	1.2	1.24	1.41	1.68	2	2.27	2.46	2.53	2.5	2.34	2.05	1.65	1.21	0.85	0.65	0.62	0.69	0.71	0.59	0.33	0.01	-0.27	-0.45	-0.59	-0.84	-1.31	-2.03	-2.86	-3.59	-4.02	-4.06	-3.74	-3.15	-2.42	-1.62	-0.81	-0.03	0.67	1.25	1.64	1.86	1.94	1.93	1.88	1.79	1.66	1.45	1.14	0.74	0.3	-0.09	-0.33	-0.35	-0.12	0.33	0.93	1.54	2.01	2.23
0.72	0.95	1.15	1.24	1.23	1.2	1.24	1.41	1.68	2	2.27	2.46	2.53	2.5	2.34	2.05	1.65	1.21	0.85	0.65	0.62	0.69	0.71	0.59	0.33	0.01	-0.27	-0.45	-0.59	-0.84	-1.31	-2.03	-2.86	-3.59	-4.02	-4.06	-3.74	-3.15	-2.42	-1.62	-0.81	-0.03	0.67	1.25	1.64	1.86	1.94	1.93	1.88	1.79	1.66	1.45	1.14	0.74	0.3	-0.09	-0.33	-0.35	-0.12	0.33	0.93	1.54	2.01	2.23	2.14	1.81	1.37	0.99	0.8	0.8	0.91	0.99	0.93	0.67	0.22	-0.38	-1.09	-1.9	-2.77	-3.65	-4.42	-4.94	-5.13	-4.94	-4.41	-3.64	-2.75	-1.81	-0.88	-0.03	0.67	1.17	1.42	1.45	1.31	1.1	0.89	0.73	0.61	0.54	0.52	0.55	0.62	0.7	0.75	0.75	0.72	0.73	0.83	1.06	1.39	1.71	1.91	1.92	1.73	1.41	1.05	0.74	0.49	0.26	0	-0.34	-0.79	-1.32	-1.92	-2.56	-3.21	-3.78
2.14	1.81	1.37	0.99	0.8	0.8	0.91	0.99	0.93	0.67	0.22	-0.38	-1.09	-1.9	-2.77	-3.65	-4.42	-4.94	-5.13	-4.94	-4.41	-3.64	-2.75	-1.81	-0.88	-0.03	0.67	1.17	1.42	1.45	1.31	1.1	0.89	0.73	0.61	0.54	0.52	0.55	0.62	0.7	0.75	0.75	0.72	0.73	0.83	1.06	1.39	1.71	1.91	1.92	1.73	1.41	1.05	0.74	0.49	0.26	0	-0.34	-0.79	-1.32	-1.92	-2.56	-3.21	-3.78	-4.21	-4.4	-4.31	-3.97	-3.44	-2.77	-1.98	-1.06	-0.05	0.95	1.8	2.35	2.53	2.39	2.06	1.69	1.35	1.05	0.76	0.49	0.3	0.28	0.47	0.84	1.28	1.68	1.96	2.14	2.26	2.34	2.35	2.22	1.91	1.45	0.95	0.53	0.25	0.09	-0.09	-0.42	-0.98	-1.79	-2.75	-3.76	-4.7	-5.46	-5.93	-6.05	-5.76	-5.11	-4.18	-3.07	-1.92	-0.8	0.23	1.09	1.7	2.03	2.06	1.89	1.66	1.49	1.43	1.41
-4.21	-4.4	-4.31	-3.97	-3.44	-2.77	-1.98	-1.06	-0.05	0.95	1.8	2.35	2.53	2.39	2.06	1.69	1.35	1.05	0.76	0.49	0.3	0.28	0.47	0.84	1.28	1.68	1.96	2.14	2.26	2.34	2.35	2.22	1.91	1.45	0.95	0.53	0.25	0.09	-0.09	-0.42	-0.98	-1.79	-2.75	-3.76	-4.7	-5.46	-5.93	-6.05	-5.76	-5.11	-4.18	-3.07	-1.92	-0.8	0.23	1.09	1.7	2.03	2.06	1.89	1.66	1.49	1.43	1.41	1.33	1.15	0.88	0.65	0.58	0.75	1.12	1.56	1.91	2.05	1.96	1.71	1.41	1.17	1.05	1.07	1.23	1.46	1.72	1.92	1.97	1.78	1.29	0.52	-0.44	-1.43	-2.33	-3.05	-3.56	-3.9	-4.11	-4.22	-4.2	-4.01	-3.6	-2.93	-2.05	-1.03	0.02	1	1.85	2.48	2.84	2.87	2.55	1.96	1.25	0.64	0.28	0.21	0.37	0.58	0.71	0.69	0.62	0.58	0.7	0.97	1.33	1.7	1.97	2.12	2.12	1.97
1.33	1.15	0.88	0.65	0.58	0.75	1.12	1.56	1.91	2.05	1.96	1.71	1.41	1.17	1.05	1.07	1.23	1.46	1.72	1.92	1.97	1.78	1.29	0.52	-0.44	-1.43	-2.33	-3.05	-3.56	-3.9	-4.11	-4.22	-4.2	-4.01	-3.6	-2.93	-2.05	-1.03	0.02	1	1.85	2.48	2.84	2.87	2.55	1.96	1.25	0.64	0.28	0.21	0.37	0.58	0.71	0.69	0.62	0.58	0.7	0.97	1.33	1.7	1.97	2.12	2.12	1.97	1.64	1.09	0.33	-0.56	-1.43	-2.11	-2.5	-2.65	-2.71	-2.86	-3.21	-3.71	-4.19	-4.4	-4.17	-3.46	-2.38	-1.13	0.11	1.19	2.04	2.65	3.01	3.12	3	2.68	2.27	1.88	1.62	1.49	1.41	1.28	0.99	0.59	0.2	-0.02	0.02	0.31	0.7	1.05	1.24	1.28	1.24	1.21	1.23	1.26	1.19	0.96	0.5	-0.16	-0.97	-1.85	-2.7	-3.43	-3.97	-4.27	-4.32	-4.11	-3.68	-3.08	-2.37	-1.58	-0.77	0.03
1.64	1.09	0.33	-0.56	-1.43	-2.11	-2.5	-2.65	-2.71	-2.86	-3.21	-3.71	-4.19	-4.4	-4.17	-3.46	-2.38	-1.13	0.11	1.19	2.04	2.65	3.01	3.12	3	2.68	2.27	1.88	1.62	1.49	1.41	1.28	0.99	0.59	0.2	-0.02	0.02	0.31	0.7	1.05	1.24	1.28	1.24	1.21	1.23	1.26	1.19	0.96	0.5	-0.16	-0.97	-1.85	-2.7	-3.43	-3.97	-4.27	-4.32	-4.11	-3.68	-3.08	-2.37	-1.58	-0.77	0.03	0.76	1.38	1.88	2.26	2.54	2.69	2.67	2.42	1.93	1.26	0.56	0.03	-0.17	0.01	0.49	1.06	1.53	1.78	1.81	1.68	1.49	1.29	1.13	1.03	1.01	1.03	1.05	0.95	0.62	0.03	-0.8	-1.75	-2.69	-3.5	-4.13	-4.56	-4.78	-4.75	-4.45	-3.85	-3.01	-2.03	-1.03	-0.11	0.69	1.33	1.81	2.09	2.15	2.01	1.75	1.46	1.24	1.14	1.17	1.26	1.39	1.52	1.67	1.81	1.91	1.97	1.99	2.03
0.76	1.38	1.88	2.26	2.54	2.69	2.67	2.42	1.93	1.26	0.56	0.03	-0.17	0.01	0.49	1.06	1.53	1.78	1.81	1.68	1.49	1.29	1.13	1.03	1.01	1.03	1.05	0.95	0.62	0.03	-0.8	-1.75	-2.69	-3.5	-4.13	-4.56	-4.78	-4.75	-4.45	-3.85	-3.01	-2.03	-1.03	-0.11	0.69	1.33	1.81	2.09	2.15	2.01	1.75	1.46	1.24	1.14	1.17	1.26	1.39	1.52	1.67	1.81	1.91	1.97	1.99	2.03	2.11	2.22	2.25	2.12	1.78	1.28	0.78	0.44	0.32	0.33	0.3	0.05	-0.51	-1.35	-2.32	-3.28	-4.08	-4.67	-5.01	-5.05	-4.73	-4.03	-3.01	-1.82	-0.69	0.21	0.8	1.14	1.35	1.54	1.74	1.9	1.91	1.77	1.52	1.29	1.15	1.14	1.18	1.2	1.2	1.21	1.31	1.52	1.8	2.07	2.2	2.17	2	1.79	1.6	1.49	1.44	1.42	1.4	1.35	1.25	1.02	0.63	0.05	-0.68	-1.5	-2.32	-3.07
2.11	2.22	2.25	2.12	1.78	1.28	0.78	0.44	0.32	0.33	0.3	0.05	-0.51	-1.35	-2.32	-3.28	-4.08	-4.67	-5.01	-5.05	-4.73	-4.03	-3.01	-1.82	-0.69	0.21	0.8	1.14	1.35	1.54	1.74	1.9	1.91	1.77	1.52	1.29	1.15	1.14	1.18	1.2	1.2	1.21	1.31	1.52	1.8	2.07	2.2	2.17	2	1.79	1.6	1.49	1.44	1.42	1.4	1.35	1.25	1.02	0.63	0.05	-0.68	-1.5	-2.32	-3.07	-3.75	-4.35	-4.88	-5.26	-5.42	-5.29	-4.83	-4.07	-3.09	-2.03	-0.98	-0.02	0.8	1.48	1.99	2.33	2.5	2.5	2.38	2.17	1.92	1.67	1.46	1.33	1.31	1.41	1.61	1.86	2.11	2.33	2.46	2.49	2.4	2.17	1.84	1.46	1.11	0.87	0.78	0.82	0.9	0.95	0.92	0.8	0.58	0.28	-0.14	-0.7	-1.39	-2.18	-2.98	-3.7	-4.26	-4.63	-4.79	-4.76	-4.55	-4.16	-3.57	-2.79	-1.85	-0.8	0.26	1.23
-3.75	-4.35	-4.88	-5.26	-5.42	-5.29	-4.83	-4.07	-3.09	-2.03	-0.98	-0.02	0.8	1.48	1.99	2.33	2.5	2.5	2.38	2.17	1.92	1.67	1.46	1.33	1.31	1.41	1.61	1.86	2.11	2.33	2.46	2.49	2.4	2.17	1.84	1.46	1.11	0.87	0.78	0.82	0.9	0.95	0.92	0.8	0.58	0.28	-0.14	-0.7	-1.39	-2.18	-2.98	-3.7	-4.26	-4.63	-4.79	-4.76	-4.55	-4.16	-3.57	-2.79	-1.85	-0.8	0.26	1.23	2	2.51	2.72	2.68	2.43	2.07	1.7	1.37	1.11	0.91	0.71	0.47	0.21	-0.01	-0.08	0.07	0.42	0.85	1.19	1.31	1.2	0.95	0.71	0.63	0.74	0.99	1.28	1.5	1.52	1.26	0.65	-0.31	-1.55	-2.91	-4.14	-5.02	-5.4	-5.24	-4.6	-3.63	-2.51	-1.4	-0.41	0.4	1.06	1.59	2.01	2.32	2.47	2.46	2.3	2.06	1.78	1.48	1.13	0.7	0.25	-0.12	-0.24	-0.04	0.44	1.02	1.5	1.77
2	2.51	2.72	2.68	2.43	2.07	1.7	1.37	1.11	0.91	0.71	0.47	0.21	-0.01	-0.08	0.07	0.42	0.85	1.19	1.31	1.2	0.95	0.71	0.63	0.74	0.99	1.28	1.5	1.52	1.26	0.65	-0.31	-1.55	-2.91	-4.14	-5.02	-5.4	-5.24	-4.6	-3.63	-2.51	-1.4	-0.41	0.4	1.06	1.59	2.01	2.32	2.47	2.46	2.3	2.06	1.78	1.48	1.13	0.7	0.25	-0.12	-0.24	-0.04	0.44	1.02	1.5	1.77	1.8	1.66	1.45	1.24	1.02	0.8	0.59	0.41	0.28	0.18	0.01	-0.32	-0.89	-1.74	-2.77	-3.87	-4.82	-5.44	-5.54	-5.06	-4.08	-2.81	-1.54	-0.52	0.14	0.46	0.58	0.65	0.77	0.94	1.13	1.27	1.36	1.41	1.44	1.44	1.37	1.2	0.94	0.65	0.44	0.42	0.65	1.09	1.61	2.06	2.27	2.22	1.94	1.58	1.26	1.06	0.93	0.77	0.47	-0.07	-0.84	-1.79	-2.84	-3.84	-4.68	-5.2	-5.29	-4.91
1.8	1.66	1.45	1.24	1.02	0.8	0.59	0.41	0.28	0.18	0.01	-0.32	-0.89	-1.74	-2.77	-3.87	-4.82	-5.44	-5.54	-5.06	-4.08	-2.81	-1.54	-0.52	0.14	0.46	0.58	0.65	0.77	0.94	1.13	1.27	1.36	1.41	1.44	1.44	1.37	1.2	0.94	0.65	0.44	0.42	0.65	1.09	1.61	2.06	2.27	2.22	1.94	1.58	1.26	1.06	0.93	0.77	0.47	-0.07	-0.84	-1.79	-2.84	-3.84	-4.68	-5.2	-5.29	-4.91	-4.13	-3.13	-2.09	-1.18	-0.42	0.21	0.76	1.22	1.54	1.69	1.68	1.58	1.48	1.42	1.35	1.22	1	0.75	0.6	0.65	0.91	1.29	1.61	1.77	1.78	1.71	1.66	1.66	1.66	1.59	1.4	1.14	0.87	0.59	0.24	-0.3	-1.13	-2.23	-3.4	-4.43	-5.1	-5.36	-5.25	-4.91	-4.42	-3.82	-3.08	-2.21	-1.25	-0.3	0.53	1.19	1.7	2.11	2.46	2.69	2.76	2.62	2.33	1.99	1.71	1.54	1.46	1.42
-4.13	-3.13	-2.09	-1.18	-0.42	0.21	0.76	1.22	1.54	1.69	1.68	1.58	1.48	1.42	1.35	1.22	1	0.75	0.6	0.65	0.91	1.29	1.61	1.77	1.78	1.71	1.66	1.66	1.66	1.59	1.4	1.14	0.87	0.59	0.24	-0.3	-1.13	-2.23	-3.4	-4.43	-5.1	-5.36	-5.25	-4.91	-4.42	-3.82	-3.08	-2.21	-1.25	-0.3	0.53	1.19	1.7	2.11	2.46	2.69	2.76	2.62	2.33	1.99	1.71	1.54	1.46	1.42	1.38	1.38	1.46	1.65	1.89	2.08	2.1	1.93	1.62	1.3	1.04	0.87	0.73	0.53	0.25	-0.09	-0.45	-0.79	-1.12	-1.51	-2.01	-2.62	-3.27	-3.86	-4.26	-4.4	-4.24	-3.76	-2.97	-1.9	-0.64	0.69	1.89	2.82	3.35	3.45	3.2	2.74	2.24	1.82	1.54	1.38	1.3	1.26	1.26	1.33	1.5	1.73	1.92	1.96	1.82	1.56	1.31	1.18	1.21	1.33	1.43	1.43	1.32	1.15	0.95	0.7	0.32	-0.22
1.38	1.38	1.46	1.65	1.89	2.08	2.1	1.93	1.62	1.3	1.04	0.87	0.73	0.53	0.25	-0.09	-0.45	-0.79	-1.12	-1.51	-2.01	-2.62	-3.27	-3.86	-4.26	-4.4	-4.24	-3.76	-2.97	-1.9	-0.64	0.69	1.89	2.82	3.35	3.45	3.2	2.74	2.24	1.82	1.54	1.38	1.3	1.26	1.26	1.33	1.5	1.73	1.92	1.96	1.82	1.56	1.31	1.18	1.21	1.33	1.43	1.43	1.32	1.15	0.95	0.7	0.32	-0.22	-0.94	-1.76	-2.57	-3.3	-3.89	-4.35	-4.66	-4.77	-4.61	-4.12	-3.33	-2.35	-1.31	-0.34	0.51	1.26	1.91	2.43	2.73	2.74	2.43	1.87	1.22	0.63	0.2	-0.01	-0.01	0.15	0.45	0.83	1.22	1.55	1.75	1.8	1.75	1.66	1.57	1.51	1.44	1.31	1.12	0.87	0.6	0.31	-0.04	-0.46	-0.98	-1.63	-2.36	-3.13	-3.83	-4.35	-4.57	-4.39	-3.82	-2.92	-1.83	-0.71	0.35	1.27	1.98	2.41	2.51	2.29
-0.94	-1.76	-2.57	-3.3	-3.89	-4.35	-4.66	-4.77	-4.61	-4.12	-3.33	-2.35	-1.31	-0.34	0.51	1.26	1.91	2.43	2.73	2.74	2.43	1.87	1.22	0.63	0.2	-0.01	-0.01	0.15	0.45	0.83	1.22	1.55	1.75	1.8	1.75	1.66	1.57	1.51	1.44	1.31	1.12	0.87	0.6	0.31	-0.04	-0.46	-0.98	-1.63	-2.36	-3.13	-3.83	-4.35	-4.57	-4.39	-3.82	-2.92	-1.83	-0.71	0.35	1.27	1.98	2.41	2.51	2.29	1.85	1.39	1.07	0.99	1.09	1.23	1.28	1.18	0.99	0.82	0.77	0.84	0.97	1.1	1.17	1.2	1.21	1.18	1.1	0.9	0.6	0.22	-0.14	-0.41	-0.57	-0.73	-1.07	-1.7	-2.66	-3.79	-4.82	-5.47	-5.58	-5.17	-4.39	-3.38	-2.27	-1.09	0.1	1.2	2.08	2.56	2.66	2.45	2.13	1.88	1.72	1.63	1.5	1.28	1.03	0.83	0.81	1	1.34	1.74	2.07	2.27	2.32	2.24	2.09	1.92	1.77	1.61
1.85	1.39	1.07	0.99	1.09	1.23	1.28	1.18	0.99	0.82	0.77	0.84	0.97	1.1	1.17	1.2	1.21	1.18	1.1	0.9	0.6	0.22	-0.14	-0.41	-0.57	-0.73	-1.07	-1.7	-2.66	-3.79	-4.82	-5.47	-5.58	-5.17	-4.39	-3.38	-2.27	-1.09	0.1	1.2	2.08	2.56	2.66	2.45	2.13	1.88	1.72	1.63	1.5	1.28	1.03	0.83	0.81	1	1.34	1.74	2.07	2.27	2.32	2.24	2.09	1.92	1.77	1.61	1.43	1.19	0.87	0.47	-0.02	-0.63	-1.37	-2.22	-3.11	-3.98	-4.73	-5.3	-5.63	-5.7	-5.48	-4.97	-4.2	-3.22	-2.13	-1	0.07	1.03	1.82	2.37	2.7	2.81	2.79	2.72	2.65	2.56	2.41	2.16	1.84	1.5	1.22	1.04	0.96	0.97	1.04	1.2	1.45	1.77	2.08	2.29	2.32	2.17	1.86	1.47	1.07	0.69	0.34	-0	-0.34	-0.67	-1.02	-1.43	-1.95	-2.61	-3.38	-4.18	-4.87	-5.29	-5.32	-4.93
1.43	1.19	0.87	0.47	-0.02	-0.63	-1.37	-2.22	-3.11	-3.98	-4.73	-5.3	-5.63	-5.7	-5.48	-4.97	-4.2	-3.22	-2.13	-1	0.07	1.03	1.82	2.37	2.7	2.81	2.79	2.72	2.65	2.56	2.41	2.16	1.84	1.5	1.22	1.04	0.96	0.97	1.04	1.2	1.45	1.77	2.08	2.29	2.32	2.17	1.86	1.47	1.07	0.69	0.34	-0	-0.34	-0.67	-1.02	-1.43	-1.95	-2.61	-3.38	-4.18	-4.87	-5.29	-5.32	-4.93	-4.16	-3.12	-1.94	-0.73	0.41	1.38	2.09	2.45	2.46	2.19	1.78	1.38	1.12	1.01	1.03	1.1	1.19	1.28	1.36	1.41	1.43	1.42	1.42	1.51	1.76	2.14	2.57	2.88	2.92	2.67	2.21	1.67	1.2	0.87	0.68	0.57	0.46	0.3	0.01	-0.46	-1.17	-2.09	-3.16	-4.23	-5.13	-5.69	-5.79	-5.38	-4.51	-3.28	-1.87	-0.49	0.68	1.51	1.99	2.17	2.17	2.09	1.97	1.81	1.58	1.3	0.99	0.74
-4.16	-3.12	-1.94	-0.73	0.41	1.38	2.09	2.45	2.46	2.19	1.78	1.38	1.12	1.01	1.03	1.1	1.19	1.28	1.36	1.41	1.43	1.42	1.42	1.51	1.76	2.14	2.57	2.88	2.92	2.67	2.21	1.67	1.2	0.87	0.68	0.57	0.46	0.3	0.01	-0.46	-1.17	-2.09	-3.16	-4.23	-5.13	-5.69	-5.79	-5.38	-4.51	-3.28	-1.87	-0.49	0.68	1.51	1.99	2.17	2.17	2.09	1.97	1.81	1.58	1.3	0.99	0.74	0.59	0.55	0.56	0.53	0.41	0.23	0.1	0.14	0.41	0.83	1.28	1.58	1.66	1.51	1.21	0.85	0.5	0.17	-0.16	-0.51	-0.87	-1.21	-1.55	-1.9	-2.32	-2.85	-3.46	-4.06	-4.51	-4.66	-4.43	-3.81	-2.86	-1.66	-0.36	0.94	2.07	2.91	3.35	3.35	3	2.44	1.85	1.38	1.06	0.86	0.67	0.47	0.26	0.1	0.08	0.25	0.56	0.93	1.3	1.59	1.79	1.94	2.05	2.1	2.06	1.89	1.62	1.29
0.59	0.55	0.56	0.53	0.41	0.23	0.1	0.14	0.41	0.83	1.28	1.58	1.66	1.51	1.21	0.85	0.5	0.17	-0.16	-0.51	-0.87	-1.21	-1.55	-1.9	-2.32	-2.85	-3.46	-4.06	-4.51	-4.66	-4.43	-3.81	-2.86	-1.66	-0.36	0.94	2.07	2.91	3.35	3.35	3	2.44	1.85	1.38	1.06	0.86	0.67	0.47	0.26	0.1	0.08	0.25	0.56	0.93	1.3	1.59	1.79	1.94	2.05	2.1	2.06	1.89	1.62	1.29	0.98	0.71	0.43	0.04	-0.53	-1.33	-2.3	-3.3	-4.21	-4.89	-5.25	-5.25	-4.9	-4.22	-3.3	-2.22	-1.11	-0.06	0.87	1.65	2.26	2.69	2.88	2.81	2.47	1.94	1.35	0.86	0.57	0.5	0.57	0.65	0.67	0.65	0.66	0.77	1.02	1.3	1.49	1.52	1.37	1.12	0.89	0.76	0.71	0.71	0.69	0.63	0.54	0.46	0.37	0.19	-0.21	-0.89	-1.88	-3.03	-4.16	-5.04	-5.5	-5.5	-5.06	-4.25	-3.13	-1.8
0.98	0.71	0.43	0.04	-0.53	-1.33	-2.3	-3.3	-4.21	-4.89	-5.25	-5.25	-4.9	-4.22	-3.3	-2.22	-1.11	-0.06	0.87	1.65	2.26	2.69	2.88	2.81	2.47	1.94	1.35	0.86	0.57	0.5	0.57	0.65	0.67	0.65	0.66	0.77	1.02	1.3	1.49	1.52	1.37	1.12	0.89	0.76	0.71	0.71	0.69	0.63	0.54	0.46	0.37	0.19	-0.21	-0.89	-1.88	-3.03	-4.16	-5.04	-5.5	-5.5	-5.06	-4.25	-3.13	-1.8	-0.37	1	2.08	2.75	2.94	2.76	2.36	1.94	1.57	1.25	0.96	0.71	0.57	0.6	0.8	1.07	1.27	1.27	1.08	0.82	0.67	0.75	1.04	1.42	1.73	1.87	1.82	1.66	1.51	1.39	1.29	1.14	0.9	0.54	0.1	-0.38	-0.91	-1.51	-2.26	-3.18	-4.19	-5.09	-5.65	-5.66	-5.07	-3.99	-2.68	-1.38	-0.28	0.6	1.3	1.87	2.32	2.62	2.72	2.62	2.4	2.13	1.88	1.65	1.4	1.13	0.85	0.64
-0.37	1	2.08	2.75	2.94	2.76	2.36	1.94	1.57	1.25	0.96	0.71	0.57	0.6	0.8	1.07	1.27	1.27	1.08	0.82	0.67	0.75	1.04	1.42	1.73	1.87	1.82	1.66	1.51	1.39	1.29	1.14	0.9	0.54	0.1	-0.38	-0.91	-1.51	-2.26	-3.18	-4.19	-5.09	-5.65	-5.66	-5.07	-3.99	-2.68	-1.38	-0.28	0.6	1.3	1.87	2.32	2.62	2.72	2.62	2.4	2.13	1.88	1.65	1.4	1.13	0.85	0.64	0.54	0.6	0.74	0.92	1.06	1.13	1.12	1.08	1.01	0.95	0.89	0.83	0.75	0.62	0.43	0.17	-0.19	-0.66	-1.25	-1.97	-2.82	-3.72	-4.58	-5.28	-5.64	-5.53	-4.91	-3.84	-2.5	-1.12	0.09	1	1.62	2.05	2.37	2.59	2.65	2.49	2.12	1.62	1.17	0.92	0.91	1.09	1.35	1.54	1.61	1.58	1.51	1.43	1.36	1.27	1.11	0.86	0.53	0.18	-0.09	-0.2	-0.15	0.01	0.12	0.01	-0.43	-1.21
0.54	0.6	0.74	0.92	1.06	1.13	1.12	1.08	1.01	0.95	0.89	0.83	0.75	0.62	0.43	0.17	-0.19	-0.66	-1.25	-1.97	-2.82	-3.72	-4.58	-5.28	-5.64	-5.53	-4.91	-3.84	-2.5	-1.12	0.09	1	1.62	2.05	2.37	2.59	2.65	2.49	2.12	1.62	1.17	0.92	0.91	1.09	1.35	1.54	1.61	1.58	1.51	1.43	1.36	1.27	1.11	0.86	0.53	0.18	-0.09	-0.2	-0.15	0.01	0.12	0.01	-0.43	-1.21	-2.25	-3.36	-4.3	-4.9	-5.06	-4.81	-4.22	-3.41	-2.46	-1.48	-0.53	0.28	0.9	1.28	1.47	1.54	1.58	1.6	1.57	1.42	1.1	0.7	0.37	0.33	0.66	1.3	2.04	2.63	2.87	2.72	2.28	1.71	1.16	0.73	0.41	0.16	-0.05	-0.22	-0.39	-0.59	-0.9	-1.37	-2.04	-2.86	-3.71	-4.45	-4.92	-5.01	-4.67	-3.94	-2.92	-1.76	-0.59	0.45	1.27	1.84	2.14	2.2	2.13	1.98	1.84	1.73	1.63	1.48
-2.25	-3.36	-4.3	-4.9	-5.06	-4.81	-4.22	-3.41	-2.46	-1.48	-0.53	0.28	0.9	1.28	1.47	1.54	1.58	1.6	1.57	1.42	1.1	0.7	0.37	0.33	0.66	1.3	2.04	2.63	2.87	2.72	2.28	1.71	1.16	0.73	0.41	0.16	-0.05	-0.22	-0.39	-0.59	-0.9	-1.37	-2.04	-2.86	-3.71	-4.45	-4.92	-5.01	-4.67	-3.94	-2.92	-1.76	-0.59	0.45	1.27	1.84	2.14	2.2	2.13	1.98	1.84	1.73	1.63	1.48	1.26	0.98	0.75	0.66	0.78	1.07	1.44	1.73	1.87	1.84	1.67	1.42	1.13	0.86	0.66	0.59	0.65	0.75	0.74	0.43	-0.24	-1.25	-2.42	-3.52	-4.36	-4.84	-4.98	-4.8	-4.35	-3.63	-2.68	-1.54	-0.31	0.87	1.88	2.61	3.01	3.11	2.96	2.69	2.4	2.2	2.09	2.03	1.94	1.73	1.37	0.93	0.5	0.19	0.1	0.25	0.62	1.1	1.59	1.95	2.11	2.05	1.84	1.58	1.38	1.23	1.08	0.82
1.26	0.98	0.75	0.66	0.78	1.07	1.44	1.73	1.87	1.84	1.67	1.42	1.13	0.86	0.66	0.59	0.65	0.75	0.74	0.43	-0.24	-1.25	-2.42	-3.52	-4.36	-4.84	-4.98	-4.8	-4.35	-3.63	-2.68	-1.54	-0.31	0.87	1.88	2.61	3.01	3.11	2.96	2.69	2.4	2.2	2.09	2.03	1.94	1.73	1.37	0.93	0.5	0.19	0.1	0.25	0.62	1.1	1.59	1.95	2.11	2.05	1.84	1.58	1.38	1.23	1.08	0.82	0.39	-0.2	-0.89	-1.6	-2.28	-2.92	-3.51	-4.03	-4.37	-4.44	-4.15	-3.49	-2.54	-1.44	-0.33	0.72	1.61	2.31	2.76	2.95	2.86	2.54	2.06	1.51	1	0.6	0.34	0.25	0.31	0.46	0.66	0.85	1.04	1.25	1.5	1.76	1.97	2.05	1.99	1.86	1.75	1.75	1.86	1.96	1.93	1.71	1.33	0.9	0.55	0.32	0.18	0.03	-0.23	-0.66	-1.26	-2	-2.82	-3.66	-4.38	-4.85	-4.95	-4.65	-3.98	-3.04
0.39	-0.2	-0.89	-1.6	-2.28	-2.92	-3.51	-4.03	-4.37	-4.44	-4.15	-3.49	-2.54	-1.44	-0.33	0.72	1.61	2.31	2.76	2.95	2.86	2.54	2.06	1.51	1	0.6	0.34	0.25	0.31	0.46	0.66	0.85	1.04	1.25	1.5	1.76	1.97	2.05	1.99	1.86	1.75	1.75	1.86	1.96	1.93	1.71	1.33	0.9	0.55	0.32	0.18	0.03	-0.23	-0.66	-1.26	-2	-2.82	-3.66	-4.38	-4.85	-4.95	-4.65	-3.98	-3.04	-1.99	-0.93	0.03	0.84	1.41	1.71	1.72	1.51	1.19	0.91	0.75	0.75	0.87	1.03	1.13	1.16	1.09	0.95	0.77	0.59	0.45	0.39	0.46	0.67	1.01	1.39	1.69	1.84	1.8	1.6	1.35	1.12	0.93	0.75	0.51	0.17	-0.31	-0.91	-1.63	-2.45	-3.33	-4.16	-4.78	-5.02	-4.76	-3.99	-2.87	-1.63	-0.5	0.38	0.97	1.29	1.44	1.44	1.31	1.06	0.72	0.37	0.11	0.02	0.12	0.36	0.63	0.85
-1.99	-0.93	0.03	0.84	1.41	1.71	1.72	1.51	1.19	0.91	0.75	0.75	0.87	1.03	1.13	1.16	1.09	0.95	0.77	0.59	0.45	0.39	0.46	0.67	1.01	1.39	1.69	1.84	1.8	1.6	1.35	1.12	0.93	0.75	0.51	0.17	-0.31	-0.91	-1.63	-2.45	-3.33	-4.16	-4.78	-5.02	-4.76	-3.99	-2.87	-1.63	-0.5	0.38	0.97	1.29	1.44	1.44	1.31	1.06	0.72	0.37	0.11	0.02	0.12	0.36	0.63	0.85	0.99	1.07	1.16	1.28	1.43	1.56	1.63	1.61	1.51	1.35	1.17	0.99	0.86	0.79	0.79	0.83	0.9	0.95	0.96	0.88	0.66	0.25	-0.36	-1.14	-2.01	-2.88	-3.64	-4.24	-4.65	-4.81	-4.67	-4.17	-3.31	-2.17	-0.91	0.24	1.13	1.68	1.9	1.91	1.8	1.66	1.53	1.43	1.34	1.26	1.19	1.14	1.09	1.03	0.93	0.78	0.57	0.37	0.26	0.29	0.45	0.67	0.83	0.82	0.65	0.38	0.16	0.09
0.99	1.07	1.16	1.28	1.43	1.56	1.63	1.61	1.51	1.35	1.17	0.99	0.86	0.79	0.79	0.83	0.9	0.95	0.96	0.88	0.66	0.25	-0.36	-1.14	-2.01	-2.88	-3.64	-4.24	-4.65	-4.81	-4.67	-4.17	-3.31	-2.17	-0.91	0.24	1.13	1.68	1.9	1.91	1.8	1.66	1.53	1.43	1.34	1.26	1.19	1.14	1.09	1.03	0.93	0.78	0.57	0.37	0.26	0.29	0.45	0.67	0.83	0.82	0.65	0.38	0.16	0.09	0.2	0.46	0.78	1.08	1.29	1.36	1.23	0.89	0.36	-0.27	-0.93	-1.55	-2.15	-2.76	-3.39	-3.97	-4.37	-4.43	-4.09	-3.41	-2.52	-1.6	-0.76	-0.04	0.56	1.07	1.47	1.73	1.83	1.77	1.59	1.37	1.19	1.09	1.04	0.98	0.82	0.52	0.14	-0.22	-0.4	-0.31	0.06	0.6	1.16	1.59	1.79	1.71	1.38	0.9	0.37	-0.08	-0.34	-0.35	-0.12	0.28	0.71	1.03	1.14	0.95	0.43	-0.38	-1.39	-2.45
0.2	0.46	0.78	1.08	1.29	1.36	1.23	0.89	0.36	-0.27	-0.93	-1.55	-2.15	-2.76	-3.39	-3.97	-4.37	-4.43	-4.09	-3.41	-2.52	-1.6	-0.76	-0.04	0.56	1.07	1.47	1.73	1.83	1.77	1.59	1.37	1.19	1.09	1.04	0.98	0.82	0.52	0.14	-0.22	-0.4	-0.31	0.06	0.6	1.16	1.59	1.79	1.71	1.38	0.9	0.37	-0.08	-0.34	-0.35	-0.12	0.28	0.71	1.03	1.14	0.95	0.43	-0.38	-1.39	-2.45	-3.4	-4.1	-4.49	-4.57	-4.4	-4.05	-3.55	-2.91	-2.11	-1.17	-0.14	0.88	1.76	2.4	2.74	2.73	2.43	1.91	1.31	0.77	0.4	0.27	0.35	0.59	0.87	1.1	1.2	1.18	1.08	0.94	0.83	0.76	0.76	0.81	0.88	0.95	1	0.96	0.81	0.54	0.16	-0.27	-0.64	-0.87	-0.91	-0.8	-0.62	-0.52	-0.62	-1.02	-1.71	-2.6	-3.52	-4.25	-4.6	-4.45	-3.79	-2.72	-1.42	-0.11	0.99	1.77	2.19	2.33
-3.4	-4.1	-4.49	-4.57	-4.4	-4.05	-3.55	-2.91	-2.11	-1.17	-0.14	0.88	1.76	2.4	2.74	2.73	2.43	1.91	1.31	0.77	0.4	0.27	0.35	0.59	0.87	1.1	1.2	1.18	1.08	0.94	0.83	0.76	0.76	0.81	0.88	0.95	1	0.96	0.81	0.54	0.16	-0.27	-0.64	-0.87	-0.91	-0.8	-0.62	-0.52	-0.62	-1.02	-1.71	-2.6	-3.52	-4.25	-4.6	-4.45	-3.79	-2.72	-1.42	-0.11	0.99	1.77	2.19	2.33	2.29	2.13	1.92	1.67	1.41	1.2	1.06	0.98	0.9	0.75	0.46	0.08	-0.27	-0.41	-0.25	0.21	0.88	1.57	2.12	2.45	2.53	2.39	2.07	1.62	1.06	0.43	-0.22	-0.87	-1.45	-1.9	-2.21	-2.39	-2.51	-2.65	-2.88	-3.19	-3.53	-3.75	-3.75	-3.48	-2.98	-2.3	-1.49	-0.59	0.38	1.34	2.14	2.68	2.9	2.83	2.58	2.24	1.86	1.43	0.95	0.47	0.08	-0.13	-0.15	-0.02	0.16	0.31	0.44	0.58
2.29	2.13	1.92	1.67	1.41	1.2	1.06	0.98	0.9	0.75	0.46	0.08	-0.27	-0.41	-0.25	0.21	0.88	1.57	2.12	2.45	2.53	2.39	2.07	1.62	1.06	0.43	-0.22	-0.87	-1.45	-1.9	-2.21	-2.39	-2.51	-2.65	-2.88	-3.19	-3.53	-3.75	-3.75	-3.48	-2.98	-2.3	-1.49	-0.59	0.38	1.34	2.14	2.68	2.9	2.83	2.58	2.24	1.86	1.43	0.95	0.47	0.08	-0.13	-0.15	-0.02	0.16	0.31	0.44	0.58	0.76	0.96	1.09	1.1	0.97	0.78	0.62	0.58	0.63	0.68	0.6	0.28	-0.32	-1.14	-2.07	-2.96	-3.71	-4.21	-4.4	-4.23	-3.74	-3.01	-2.18	-1.38	-0.68	-0.05	0.59	1.29	2	2.56	2.82	2.7	2.26	1.7	1.25	1.07	1.16	1.38	1.55	1.51	1.22	0.76	0.28	-0.08	-0.2	-0.07	0.27	0.7	1.09	1.34	1.42	1.39	1.29	1.21	1.15	1.08	0.94	0.7	0.31	-0.24	-0.96	-1.83	-2.77	-3.69
0.76	0.96	1.09	1.1	0.97	0.78	0.62	0.58	0.63	0.68	0.6	0.28	-0.32	-1.14	-2.07	-2.96	-3.71	-4.21	-4.4	-4.23	-3.74	-3.01	-2.18	-1.38	-0.68	-0.05	0.59	1.29	2	2.56	2.82	2.7	2.26	1.7	1.25	1.07	1.16	1.38	1.55	1.51	1.22	0.76	0.28	-0.08	-0.2	-0.07	0.27	0.7	1.09	1.34	1.42	1.39	1.29	1.21	1.15	1.08	0.94	0.7	0.31	-0.24	-0.96	-1.83	-2.77	-3.69	-4.43	-4.88	-4.97	-4.73	-4.21	-3.5	-2.69	-1.78	-0.8	0.2	1.14	1.92	2.45	2.67	2.62	2.35	1.95	1.49	1.04	0.65	0.38	0.27	0.33	0.55	0.85	1.16	1.4	1.55	1.61	1.63	1.62	1.58	1.48	1.28	1	0.7	0.46	0.33	0.3	0.28	0.13	-0.28	-0.99	-1.94	-2.96	-3.86	-4.46	-4.69	-4.54	-4.08	-3.38	-2.52	-1.52	-0.45	0.62	1.53	2.15	2.41	2.34	2.1	1.86	1.73	1.71	1.69
-4.43	-4.88	-4.97	-4.73	-4.21	-3.5	-2.69	-1.78	-0.8	0.2	1.14	1.92	2.45	2.67	2.62	2.35	1.95	1.49	1.04	0.65	0.38	0.27	0.33	0.55	0.85	1.16	1.4	1.55	1.61	1.63	1.62	1.58	1.48	1.28	1	0.7	0.46	0.33	0.3	0.28	0.13	-0.28	-0.99	-1.94	-2.96	-3.86	-4.46	-4.69	-4.54	-4.08	-3.38	-2.52	-1.52	-0.45	0.62	1.53	2.15	2.41	2.34	2.1	1.86	1.73	1.71	1.69	1.59	1.37	1.12	0.94	0.86	0.79	0.66	0.44	0.23	0.15	0.32	0.68	1.07	1.3	1.3	1.1	0.81	0.56	0.35	0.09	-0.33	-0.95	-1.74	-2.6	-3.42	-4.08	-4.48	-4.55	-4.25	-3.63	-2.8	-1.89	-1.03	-0.28	0.37	0.97	1.58	2.16	2.65	2.92	2.88	2.51	1.89	1.14	0.43	-0.11	-0.41	-0.47	-0.33	-0.07	0.26	0.63	1	1.33	1.56	1.61	1.45	1.1	0.68	0.33	0.17	0.21	0.35	0.39
1.59	1.37	1.12	0.94	0.86	0.79	0.66	0.44	0.23	0.15	0.32	0.68	1.07	1.3	1.3	1.1	0.81	0.56	0.35	0.09	-0.33	-0.95	-1.74	-2.6	-3.42	-4.08	-4.48	-4.55	-4.25	-3.63	-2.8	-1.89	-1.03	-0.28	0.37	0.97	1.58	2.16	2.65	2.92	2.88	2.51	1.89	1.14	0.43	-0.11	-0.41	-0.47	-0.33	-0.07	0.26	0.63	1	1.33	1.56	1.61	1.45	1.1	0.68	0.33	0.17	0.21	0.35	0.39	0.15	-0.46	-1.37	-2.4	-3.32	-3.97	-4.28	-4.27	-3.97	-3.42	-2.63	-1.67	-0.63	0.33	1.11	1.61	1.85	1.92	1.92	1.94	2.02	2.13	2.21	2.2	2.09	1.88	1.65	1.5	1.46	1.54	1.66	1.72	1.65	1.45	1.13	0.78	0.44	0.14	-0.09	-0.27	-0.41	-0.56	-0.76	-1.05	-1.48	-2.01	-2.59	-3.12	-3.54	-3.78	-3.8	-3.57	-3.12	-2.48	-1.74	-0.99	-0.33	0.2	0.57	0.83	1	1.14	1.26	1.4
0.15	-0.46	-1.37	-2.4	-3.32	-3.97	-4.28	-4.27	-3.97	-3.42	-2.63	-1.67	-0.63	0.33	1.11	1.61	1.85	1.92	1.92	1.94	2.02	2.13	2.21	2.2	2.09	1.88	1.65	1.5	1.46	1.54	1.66	1.72	1.65	1.45	1.13	0.78	0.44	0.14	-0.09	-0.27	-0.41	-0.56	-0.76	-1.05	-1.48	-2.01	-2.59	-3.12	-3.54	-3.78	-3.8	-3.57	-3.12	-2.48	-1.74	-0.99	-0.33	0.2	0.57	0.83	1	1.14	1.26	1.4	1.56	1.73	1.89	2.02	2.08	2.04	1.89	1.64	1.34	1.02	0.78	0.65	0.69	0.92	1.29	1.72	2.09	2.27	2.2	1.87	1.38	0.84	0.4	0.15	0.1	0.18	0.28	0.28	0.07	-0.39	-1.06	-1.87	-2.69	-3.41	-3.91	-4.19	-4.24	-4.09	-3.74	-3.17	-2.35	-1.3	-0.15	0.96	1.84	2.37	2.52	2.35	2.02	1.65	1.37	1.23	1.22	1.31	1.44	1.59	1.71	1.81	1.9	2.01	2.15	2.3	2.4	2.39
1.56	1.73	1.89	2.02	2.08	2.04	1.89	1.64	1.34	1.02	0.78	0.65	0.69	0.92	1.29	1.72	2.09	2.27	2.2	1.87	1.38	0.84	0.4	0.15	0.1	0.18	0.28	0.28	0.07	-0.39	-1.06	-1.87	-2.69	-3.41	-3.91	-4.19	-4.24	-4.09	-3.74	-3.17	-2.35	-1.3	-0.15	0.96	1.84	2.37	2.52	2.35	2.02	1.65	1.37	1.23	1.22	1.31	1.44	1.59	1.71	1.81	1.9	2.01	2.15	2.3	2.4	2.39	2.23	1.93	1.54	1.17	0.9	0.76	0.72	0.71	0.69	0.64	0.58	0.51	0.41	0.24	-0.06	-0.43	-0.83	-1.18	-1.47	-1.79	-2.25	-2.92	-3.75	-4.55	-5.1	-5.2	-4.78	-3.92	-2.79	-1.58	-0.44	0.54	1.31	1.86	2.19	2.3	2.23	2.05	1.85	1.71	1.66	1.72	1.83	1.96	2.06	2.12	2.14	2.13	2.11	2.09	2.07	2.03	1.96	1.82	1.61	1.36	1.08	0.84	0.64	0.47	0.29	0.04	-0.25	-0.53
2.23	1.93	1.54	1.17	0.9	0.76	0.72	0.71	0.69	0.64	0.58	0.51	0.41	0.24	-0.06	-0.43	-0.83	-1.18	-1.47	-1.79	-2.25	-2.92	-3.75	-4.55	-5.1	-5.2	-4.78	-3.92	-2.79	-1.58	-0.44	0.54	1.31	1.86	2.19	2.3	2.23	2.05	1.85	1.71	1.66	1.72	1.83	1.96	2.06	2.12	2.14	2.13	2.11	2.09	2.07	2.03	1.96	1.82	1.61	1.36	1.08	0.84	0.64	0.47	0.29	0.04	-0.25	-0.53	-0.72	-0.78	-0.69	-0.57	-0.54	-0.76	-1.28	-2.05	-2.95	-3.78	-4.39	-4.66	-4.54	-4.07	-3.32	-2.42	-1.48	-0.6	0.17	0.8	1.31	1.69	1.94	2.04	1.98	1.78	1.49	1.19	0.99	0.95	1.06	1.26	1.45	1.56	1.55	1.43	1.25	1.03	0.78	0.53	0.31	0.16	0.11	0.14	0.18	0.18	0.1	-0.03	-0.16	-0.23	-0.22	-0.2	-0.25	-0.45	-0.85	-1.41	-2.08	-2.76	-3.37	-3.83	-4.1	-4.13	-3.92	-3.47
-0.72	-0.78	-0.69	-0.57	-0.54	-0.76	-1.28	-2.05	-2.95	-3.78	-4.39	-4.66	-4.54	-4.07	-3.32	-2.42	-1.48	-0.6	0.17	0.8	1.31	1.69	1.94	2.04	1.98	1.78	1.49	1.19	0.99	0.95	1.06	1.26	1.45	1.56	1.55	1.43	1.25	1.03	0.78	0.53	0.31	0.16	0.11	0.14	0.18	0.18	0.1	-0.03	-0.16	-0.23	-0.22	-0.2	-0.25	-0.45	-0.85	-1.41	-2.08	-2.76	-3.37	-3.83	-4.1	-4.13	-3.92	-3.47	-2.8	-1.94	-0.96	0.04	0.95	1.66	2.1	2.26	2.14	1.82	1.36	0.84	0.35	-0.01	-0.18	-0.13	0.16	0.62	1.15	1.66	2.01	2.13	1.99	1.64	1.23	0.91	0.8	0.9	1.12	1.27	1.22	0.93	0.47	0	-0.32	-0.4	-0.26	-0.03	0.16	0.14	-0.16	-0.74	-1.56	-2.51	-3.46	-4.28	-4.81	-4.92	-4.56	-3.74	-2.59	-1.31	-0.12	0.8	1.37	1.63	1.69	1.69	1.74	1.87	1.98	1.96	1.69	1.15
-2.8	-1.94	-0.96	0.04	0.95	1.66	2.1	2.26	2.14	1.82	1.36	0.84	0.35	-0.01	-0.18	-0.13	0.16	0.62	1.15	1.66	2.01	2.13	1.99	1.64	1.23	0.91	0.8	0.9	1.12	1.27	1.22	0.93	0.47	0	-0.32	-0.4	-0.26	-0.03	0.16	0.14	-0.16	-0.74	-1.56	-2.51	-3.46	-4.28	-4.81	-4.92	-4.56	-3.74	-2.59	-1.31	-0.12	0.8	1.37	1.63	1.69	1.69	1.74	1.87	1.98	1.96	1.69	1.15	0.45	-0.26	-0.76	-0.91	-0.65	-0.05	0.74	1.52	2.1	2.38	2.33	2.04	1.64	1.27	1	0.84	0.73	0.61	0.44	0.23	0	-0.19	-0.36	-0.53	-0.78	-1.21	-1.84	-2.62	-3.41	-4.04	-4.38	-4.42	-4.23	-3.92	-3.54	-3.04	-2.33	-1.35	-0.16	1.05	2.07	2.73	3.04	3.06	2.9	2.6	2.16	1.61	1.01	0.51	0.24	0.26	0.48	0.78	1	1.09	1.11	1.18	1.39	1.76	2.19	2.56	2.71	2.59
0.45	-0.26	-0.76	-0.91	-0.65	-0.05	0.74	1.52	2.1	2.38	2.33	2.04	1.64	1.27	1	0.84	0.73	0.61	0.44	0.23	0	-0.19	-0.36	-0.53	-0.78	-1.21	-1.84	-2.62	-3.41	-4.04	-4.38	-4.42	-4.23	-3.92	-3.54	-3.04	-2.33	-1.35	-0.16	1.05	2.07	2.73	3.04	3.06	2.9	2.6	2.16	1.61	1.01	0.51	0.24	0.26	0.48	0.78	1	1.09	1.11	1.18	1.39	1.76	2.19	2.56	2.71	2.59	2.19	1.59	0.9	0.21	-0.4	-0.93	-1.36	-1.72	-2.02	-2.34	-2.72	-3.19	-3.75	-4.28	-4.66	-4.76	-4.51	-3.94	-3.09	-2.05	-0.91	0.24	1.31	2.19	2.77	3.01	2.92	2.6	2.19	1.81	1.52	1.31	1.12	0.9	0.69	0.53	0.48	0.57	0.77	1.03	1.3	1.53	1.71	1.83	1.86	1.82	1.71	1.57	1.41	1.24	1.05	0.81	0.5	0.1	-0.45	-1.19	-2.15	-3.27	-4.41	-5.31	-5.76	-5.63	-4.98	-3.98
2.19	1.59	0.9	0.21	-0.4	-0.93	-1.36	-1.72	-2.02	-2.34	-2.72	-3.19	-3.75	-4.28	-4.66	-4.76	-4.51	-3.94	-3.09	-2.05	-0.91	0.24	1.31	2.19	2.77	3.01	2.92	2.6	2.19	1.81	1.52	1.31	1.12	0.9	0.69	0.53	0.48	0.57	0.77	1.03	1.3	1.53	1.71	1.83	1.86	1.82	1.71	1.57	1.41	1.24	1.05	0.81	0.5	0.1	-0.45	-1.19	-2.15	-3.27	-4.41	-5.31	-5.76	-5.63	-4.98	-3.98	-2.86	-1.76	-0.73	0.24	1.12	1.86	2.36	2.53	2.41	2.11	1.81	1.64	1.61	1.62	1.55	1.34	1.04	0.8	0.74	0.9	1.18	1.4	1.43	1.2	0.78	0.28	-0.19	-0.52	-0.69	-0.64	-0.4	0.02	0.47	0.78	0.73	0.21	-0.75	-1.98	-3.22	-4.24	-4.86	-5.02	-4.74	-4.06	-3.08	-1.92	-0.72	0.35	1.17	1.7	1.97	2.09	2.16	2.23	2.3	2.3	2.19	1.94	1.58	1.22	0.94	0.8	0.84	1
-2.86	-1.76	-0.73	0.24	1.12	1.86	2.36	2.53	2.41	2.11	1.81	1.64	1.61	1.62	1.55	1.34	1.04	0.8	0.74	0.9	1.18	1.4	1.43	1.2	0.78	0.28	-0.19	-0.52	-0.69	-0.64	-0.4	0.02	0.47	0.78	0.73	0.21	-0.75	-1.98	-3.22	-4.24	-4.86	-5.02	-4.74	-4.06	-3.08	-1.92	-0.72	0.35	1.17	1.7	1.97	2.09	2.16	2.23	2.3	2.3	2.19	1.94	1.58	1.22	0.94	0.8	0.84	1	1.19	1.36	1.45	1.46	1.41	1.3	1.15	0.97	0.83	0.76	0.8	0.91	1.02	1.02	0.84	0.43	-0.17	-0.91	-1.74	-2.61	-3.45	-4.18	-4.68	-4.82	-4.55	-3.88	-2.93	-1.87	-0.83	0.09	0.87	1.51	2	2.33	2.47	2.4	2.14	1.74	1.32	0.97	0.78	0.79	0.96	1.22	1.44	1.5	1.37	1.1	0.8	0.59	0.57	0.74	1.04	1.38	1.68	1.88	1.96	1.87	1.57	0.98	0.09	-1.07	-2.32	-3.47
1.19	1.36	1.45	1.46	1.41	1.3	1.15	0.97	0.83	0.76	0.8	0.91	1.02	1.02	0.84	0.43	-0.17	-0.91	-1.74	-2.61	-3.45	-4.18	-4.68	-4.82	-4.55	-3.88	-2.93	-1.87	-0.83	0.09	0.87	1.51	2	2.33	2.47	2.4	2.14	1.74	1.32	0.97	0.78	0.79	0.96	1.22	1.44	1.5	1.37	1.1	0.8	0.59	0.57	0.74	1.04	1.38	1.68	1.88	1.96	1.87	1.57	0.98	0.09	-1.07	-2.32	-3.47	-4.32	-4.76	-4.82	-4.56	-4.07	-3.42	-2.64	-1.75	-0.83	0.05	0.8	1.38	1.77	1.99	2.03	1.89	1.6	1.2	0.79	0.48	0.35	0.42	0.64	0.92	1.17	1.32	1.36	1.31	1.22	1.13	1.07	1.05	1.08	1.18	1.33	1.53	1.65	1.57	1.19	0.43	-0.63	-1.86	-3.03	-3.95	-4.5	-4.64	-4.43	-3.97	-3.35	-2.64	-1.88	-1.06	-0.2	0.65	1.38	1.92	2.22	2.29	2.21	2.05	1.82	1.55	1.25	0.95
-4.32	-4.76	-4.82	-4.56	-4.07	-3.42	-2.64	-1.75	-0.83	0.05	0.8	1.38	1.77	1.99	2.03	1.89	1.6	1.2	0.79	0.48	0.35	0.42	0.64	0.92	1.17	1.32	1.36	1.31	1.22	1.13	1.07	1.05	1.08	1.18	1.33	1.53	1.65	1.57	1.19	0.43	-0.63	-1.86	-3.03	-3.95	-4.5	-4.64	-4.43	-3.97	-3.35	-2.64	-1.88	-1.06	-0.2	0.65	1.38	1.92	2.22	2.29	2.21	2.05	1.82	1.55	1.25	0.95	0.7	0.56	0.55	0.64	0.76	0.85	0.84	0.74	0.58	0.4	0.27	0.23	0.3	0.45	0.62	0.72	0.66	0.41	-0.05	-0.66	-1.37	-2.1	-2.78	-3.35	-3.74	-3.88	-3.74	-3.28	-2.54	-1.57	-0.52	0.43	1.12	1.48	1.54	1.4	1.21	1.11	1.12	1.21	1.28	1.21	0.97	0.61	0.26	0.1	0.24	0.65	1.2	1.71	2.01	2.08	1.98	1.82	1.71	1.64	1.57	1.42	1.15	0.8	0.44	0.14	-0.1	-0.33
0.7	0.56	0.55	0.64	0.76	0.85	0.84	0.74	0.58	0.4	0.27	0.23	0.3	0.45	0.62	0.72	0.66	0.41	-0.05	-0.66	-1.37	-2.1	-2.78	-3.35	-3.74	-3.88	-3.74	-3.28	-2.54	-1.57	-0.52	0.43	1.12	1.48	1.54	1.4	1.21	1.11	1.12	1.21	1.28	1.21	0.97	0.61	0.26	0.1	0.24	0.65	1.2	1.71	2.01	2.08	1.98	1.82	1.71	1.64	1.57	1.42	1.15	0.8	0.44	0.14	-0.1	-0.33	-0.62	-1.04	-1.58	-2.15	-2.67	-3.09	-3.4	-3.67	-3.92	-4.13	-4.2	-3.99	-3.4	-2.47	-1.33	-0.19	0.75	1.43	1.85	2.09	2.19	2.16	1.98	1.64	1.19	0.72	0.35	0.19	0.24	0.48	0.83	1.21	1.58	1.9	2.16	2.32	2.37	2.33	2.22	2.08	1.95	1.84	1.73	1.59	1.39	1.1	0.75	0.4	0.11	-0.07	-0.15	-0.19	-0.27	-0.47	-0.84	-1.39	-2.14	-3.05	-4.03	-4.94	-5.59	-5.83	-5.58	-4.91
-0.62	-1.04	-1.58	-2.15	-2.67	-3.09	-3.4	-3.67	-3.92	-4.13	-4.2	-3.99	-3.4	-2.47	-1.33	-0.19	0.75	1.43	1.85	2.09	2.19	2.16	1.98	1.64	1.19	0.72	0.35	0.19	0.24	0.48	0.83	1.21	1.58	1.9	2.16	2.32	2.37	2.33	2.22	2.08	1.95	1.84	1.73	1.59	1.39	1.1	0.75	0.4	0.11	-0.07	-0.15	-0.19	-0.27	-0.47	-0.84	-1.39	-2.14	-3.05	-4.03	-4.94	-5.59	-5.83	-5.58	-4.91	-3.96	-2.88	-1.79	-0.71	0.32	1.25	1.98	2.4	2.46	2.22	1.83	1.45	1.24	1.21	1.29	1.37	1.34	1.2	1.02	0.98	1.19	1.69	2.38	3.03	3.39	3.34	2.89	2.23	1.61	1.21	1.09	1.16	1.3	1.39	1.36	1.21	0.95	0.63	0.3	0	-0.22	-0.35	-0.44	-0.6	-0.96	-1.59	-2.45	-3.41	-4.33	-5.05	-5.51	-5.68	-5.55	-5.09	-4.31	-3.22	-1.93	-0.59	0.6	1.49	1.98	2.08	1.87	1.51
