-0	-0	-0	-0	-0	-0	-0	-0	-0	-0	0	0.01	0.01	-0	-0.03	-0.05	-0.05	0	0.13	0.36	0.66	1.01	1.37	1.72	2.06	2.4	2.79	3.24	3.8	4.42	5.06	5.66	6.2	6.68	7.15	7.68	8.31	9.14	10.09	11.04	11.88	12.56	13.14	13.76	14.65	15.96	17.91	20.32	22.9	25.38	27.58	29.57	31.68	34.32	37.81	42.54	48.15	54.1	59.83	64.97	69.58	74.14	79.34	85.71	93.76	103	112.62	121.73	129.77	136.75	143.3	150.75	157.77	166.64	177.95	191.79	206.97	220.57	228.25	225.36	208.53	176.87	132.76	80.05	23.07	-34.94	-92.44	-149.16	-205.23	-260.37	-313.74	-363.87	-409.83	-450.91	-486.5	-515.74	-537.23	-549.22	-549.96	-538.37	-514.21	-478.68	-433.88	-382.43	-326.99	-269.8	-212.61	-156.7	-103.09	-52.62	-6.26	35.15	70.97	100.91	125.08	143.97	158.24	168.6	175.7	179.96	181.71	181.21	178.71	174.51	168.93	162.35	155.08	147.43
93.76	103	112.62	121.73	129.77	136.75	143.3	150.75	157.77	166.64	177.95	191.79	206.97	220.57	228.25	225.36	208.53	176.87	132.76	80.05	23.07	-34.94	-92.44	-149.16	-205.23	-260.37	-313.74	-363.87	-409.83	-450.91	-486.5	-515.74	-537.23	-549.22	-549.96	-538.37	-514.21	-478.68	-433.88	-382.43	-326.99	-269.8	-212.61	-156.7	-103.09	-52.62	-6.26	35.15	70.97	100.91	125.08	143.97	158.24	168.6	175.7	179.96	181.71	181.21	178.71	174.51	168.93	162.35	155.08	147.43	139.64	131.88	124.22	116.67	109.16	101.6	93.91	86.15	78.47	71.13	64.37	58.33	52.9	47.84	42.75	37.36	31.64	25.82	20.39	15.82	12.36	9.86	7.8	5.51	2.45	-1.47	-5.84	-9.92	-12.96	-14.57	-14.9	-14.57	-14.44	-15.28	-17.6	-21.53	-26.68	-31.98	-35.68	-35.68	-30.24	-18.92	-3.06	14.44	30.09	41.06	46.25	46.45	43.77	40.56	38.31	37.27	36.62	35.22	32.35	28.1	23.3	19.06	16.13	14.6	13.85	13.03	11.53	9.37
139.64	131.88	124.22	116.67	109.16	101.6	93.91	86.15	78.47	71.13	64.37	58.33	52.9	47.84	42.75	37.36	31.64	25.82	20.39	15.82	12.36	9.86	7.8	5.51	2.45	-1.47	-5.84	-9.92	-12.96	-14.57	-14.9	-14.57	-14.44	-15.28	-17.6	-21.53	-26.68	-31.98	-35.68	-35.68	-30.24	-18.92	-3.06	14.44	30.09	41.06	46.25	46.45	43.77	40.56	38.31	37.27	36.62	35.22	32.35	28.1	23.3	19.06	16.13	14.6	13.85	13.03	11.53	9.37	7.08	5.34	4.55	4.59	4.91	4.93	4.26	2.87	1.06	-0.75	-2.24	-3.24	-3.74	-3.8	-3.43	-2.58	-1.22	0.65	2.8	4.88	6.55	7.53	7.73	7.23	6.15	4.73	3.22	1.94	1.2	1.16	1.84	3.03	4.46	5.9	7.32	8.79	10.42	12.15	13.72	14.87	15.37	15.18	14.36	13.05	11.32	9.19	6.76	3.97	0.85	-2.53	-6.05	-9.46	-12.38	-14.34	-14.98	-14.24	-12.45	-10.24	-8.28	-7.08	-6.77	-7.18	-7.98	-8.88
7.08	5.34	4.55	4.59	4.91	4.93	4.26	2.87	1.06	-0.75	-2.24	-3.24	-3.74	-3.8	-3.43	-2.58	-1.22	0.65	2.8	4.88	6.55	7.53	7.73	7.23	6.15	4.73	3.22	1.94	1.2	1.16	1.84	3.03	4.46	5.9	7.32	8.79	10.42	12.15	13.72	14.87	15.37	15.18	14.36	13.05	11.32	9.19	6.76	3.97	0.85	-2.53	-6.05	-9.46	-12.38	-14.34	-14.98	-14.24	-12.45	-10.24	-8.28	-7.08	-6.77	-7.18	-7.98	-8.88	-9.7	-10.43	-11.07	-11.62	-11.97	-11.99	-11.56	-10.67	-9.45	-8.17	-7.13	-6.52	-6.37	-6.46	-6.51	-6.28	-5.68	-4.84	-3.95	-3.23	-2.8	-2.63	-2.66	-2.84	-3.17	-3.57	-3.87	-3.74	-2.76	-0.64	2.57	6.45	10.29	13.33	15	15.15	14.02	12.07	9.75	7.32	4.9	2.49	0.12	-2.08	-3.92	-5.25	-5.92	-6	-5.76	-5.56	-5.66	-6.13	-6.83	-7.5	-7.9	-7.93	-7.72	-7.49	-7.53	-8.02	-9.04	-10.55	-12.43	-14.49
-9.7	-10.43	-11.07	-11.62	-11.97	-11.99	-11.56	-10.67	-9.45	-8.17	-7.13	-6.52	-6.37	-6.46	-6.51	-6.28	-5.68	-4.84	-3.95	-3.23	-2.8	-2.63	-2.66	-2.84	-3.17	-3.57	-3.87	-3.74	-2.76	-0.64	2.57	6.45	10.29	13.33	15	15.15	14.02	12.07	9.75	7.32	4.9	2.49	0.12	-2.08	-3.92	-5.25	-5.92	-6	-5.76	-5.56	-5.66	-6.13	-6.83	-7.5	-7.9	-7.93	-7.72	-7.49	-7.53	-8.02	-9.04	-10.55	-12.43	-14.49	-16.44	-17.87	-18.26	-17.11	-14.11	-9.32	-3.22	3.38	9.6	14.7	18.26	20.17	20.58	19.78	18.05	15.7	13.01	10.25	7.63	5.28	3.23	1.43	-0.25	-1.91	-3.62	-5.41	-7.23	-9	-10.64	-12.08	-13.35	-14.61	-16.11	-18.14	-20.9	-24.47	-28.68	-33.1	-37.06	-39.84	-40.72	-39.29	-35.46	-29.53	-22.1	-13.89	-5.58	2.31	9.46	15.71	20.97	25.17	28.27	30.26	31.26	31.49	31.25	30.78	30.18	29.42	28.34	26.86	24.97	22.8
-16.44	-17.87	-18.26	-17.11	-14.11	-9.32	-3.22	3.38	9.6	14.7	18.26	20.17	20.58	19.78	18.05	15.7	13.01	10.25	7.63	5.28	3.23	1.43	-0.25	-1.91	-3.62	-5.41	-7.23	-9	-10.64	-12.08	-13.35	-14.61	-16.11	-18.14	-20.9	-24.47	-28.68	-33.1	-37.06	-39.84	-40.72	-39.29	-35.46	-29.53	-22.1	-13.89	-5.58	2.31	9.46	15.71	20.97	25.17	28.27	30.26	31.26	31.49	31.25	30.78	30.18	29.42	28.34	26.86	24.97	22.8	20.53	18.27	16.04	13.74	11.2	8.3	5.02	1.41	-2.37	-6.12	-9.58	-12.46	-14.38	-14.97	-13.93	-11.15	-6.81	-1.39	4.39	9.79	14.16	17.11	18.55	18.59	17.47	15.45	12.77	9.7	6.53	3.61	1.32	-0.1	-0.59	-0.34	0.22	0.61	0.47	-0.3	-1.52	-2.86	-4.03	-4.94	-5.72	-6.68	-8.05	-9.94	-12.24	-14.69	-16.93	-18.55	-19.17	-18.46	-16.21	-12.42	-7.36	-1.53	4.43	9.87	14.31	17.42	19.09	19.33	18.25	16.12
20.53	18.27	16.04	13.74	11.2	8.3	5.02	1.41	-2.37	-6.12	-9.58	-12.46	-14.38	-14.97	-13.93	-11.15	-6.81	-1.39	4.39	9.79	14.16	17.11	18.55	18.59	17.47	15.45	12.77	9.7	6.53	3.61	1.32	-0.1	-0.59	-0.34	0.22	0.61	0.47	-0.3	-1.52	-2.86	-4.03	-4.94	-5.72	-6.68	-8.05	-9.94	-12.24	-14.69	-16.93	-18.55	-19.17	-18.46	-16.21	-12.42	-7.36	-1.53	4.43	9.87	14.31	17.42	19.09	19.33	18.25	16.12	13.34	10.42	7.84	5.92	4.75	4.12	3.7	3.17	2.39	1.36	0.21	-0.95	-2.06	-3.12	-4.12	-5.1	-6.08	-7.19	-8.66	-10.68	-13.29	-16.16	-18.66	-19.97	-19.42	-16.71	-12.14	-6.43	-0.5	4.83	9.11	12.21	14.24	15.36	15.58	14.83	13.13	10.66	7.89	5.41	3.7	2.95	2.92	3.16	3.2	2.79	2.02	1.11	0.3	-0.37	-1.11	-2.21	-3.86	-6.07	-8.66	-11.42	-14.18	-16.81	-19.18	-20.98	-21.79	-21.12	-18.69	-14.53
13.34	10.42	7.84	5.92	4.75	4.12	3.7	3.17	2.39	1.36	0.21	-0.95	-2.06	-3.12	-4.12	-5.1	-6.08	-7.19	-8.66	-10.68	-13.29	-16.16	-18.66	-19.97	-19.42	-16.71	-12.14	-6.43	-0.5	4.83	9.11	12.21	14.24	15.36	15.58	14.83	13.13	10.66	7.89	5.41	3.7	2.95	2.92	3.16	3.2	2.79	2.02	1.11	0.3	-0.37	-1.11	-2.21	-3.86	-6.07	-8.66	-11.42	-14.18	-16.81	-19.18	-20.98	-21.79	-21.12	-18.69	-14.53	-9.07	-3.05	2.73	7.58	11.09	13.12	13.72	13.03	11.24	8.62	5.5	2.31	-0.58	-2.88	-4.59	-5.93	-7.24	-8.78	-10.64	-12.7	-14.74	-16.54	-18.06	-19.43	-20.92	-22.81	-25.28	-28.32	-31.69	-34.92	-37.34	-38.22	-36.9	-33	-26.51	-17.84	-7.72	2.96	13.32	22.63	30.39	36.28	40.15	42.01	42.04	40.6	38.22	35.48	32.88	30.7	28.96	27.46	25.9	24.04	21.81	19.31	16.78	14.4	12.28	10.33	8.36	6.1	3.36	0.06
-9.07	-3.05	2.73	7.58	11.09	13.12	13.72	13.03	11.24	8.62	5.5	2.31	-0.58	-2.88	-4.59	-5.93	-7.24	-8.78	-10.64	-12.7	-14.74	-16.54	-18.06	-19.43	-20.92	-22.81	-25.28	-28.32	-31.69	-34.92	-37.34	-38.22	-36.9	-33	-26.51	-17.84	-7.72	2.96	13.32	22.63	30.39	36.28	40.15	42.01	42.04	40.6	38.22	35.48	32.88	30.7	28.96	27.46	25.9	24.04	21.81	19.31	16.78	14.4	12.28	10.33	8.36	6.1	3.36	0.06	-3.65	-7.45	-10.82	-13.19	-14.05	-13.1	-10.36	-6.19	-1.21	3.86	8.33	11.72	13.75	14.3	13.36	11.06	7.67	3.63	-0.48	-4.16	-7.07	-9.15	-10.61	-11.77	-12.89	-14.11	-15.38	-16.58	-17.66	-18.64	-19.69	-21.01	-22.76	-25.07	-27.89	-31.05	-34.15	-36.64	-37.85	-37.1	-33.85	-27.89	-19.42	-9.1	2.11	13.18	23.17	31.47	37.76	41.94	44.06	44.21	42.64	39.72	36.01	32.12	28.61	25.76	23.57	21.86	20.41	19.1	17.9	16.82
-3.65	-7.45	-10.82	-13.19	-14.05	-13.1	-10.36	-6.19	-1.21	3.86	8.33	11.72	13.75	14.3	13.36	11.06	7.67	3.63	-0.48	-4.16	-7.07	-9.15	-10.61	-11.77	-12.89	-14.11	-15.38	-16.58	-17.66	-18.64	-19.69	-21.01	-22.76	-25.07	-27.89	-31.05	-34.15	-36.64	-37.85	-37.1	-33.85	-27.89	-19.42	-9.1	2.11	13.18	23.17	31.47	37.76	41.94	44.06	44.21	42.64	39.72	36.01	32.12	28.61	25.76	23.57	21.86	20.41	19.1	17.9	16.82	15.86	14.89	13.78	12.39	10.64	8.49	5.92	2.91	-0.49	-4.12	-7.64	-10.54	-12.26	-12.39	-10.75	-7.5	-3.09	1.87	6.72	10.91	14.06	15.95	16.56	15.95	14.26	11.73	8.64	5.32	2.11	-0.67	-2.84	-4.37	-5.37	-6.12	-6.9	-7.89	-9.14	-10.52	-11.83	-12.94	-13.87	-14.78	-15.97	-17.7	-20.11	-23.15	-26.53	-29.84	-32.57	-34.26	-34.59	-33.43	-30.86	-27.15	-22.7	-17.94	-13.28	-9.03	-5.37	-2.35	0.14	2.28	4.35	6.51
15.86	14.89	13.78	12.39	10.64	8.49	5.92	2.91	-0.49	-4.12	-7.64	-10.54	-12.26	-12.39	-10.75	-7.5	-3.09	1.87	6.72	10.91	14.06	15.95	16.56	15.95	14.26	11.73	8.64	5.32	2.11	-0.67	-2.84	-4.37	-5.37	-6.12	-6.9	-7.89	-9.14	-10.52	-11.83	-12.94	-13.87	-14.78	-15.97	-17.7	-20.11	-23.15	-26.53	-29.84	-32.57	-34.26	-34.59	-33.43	-30.86	-27.15	-22.7	-17.94	-13.28	-9.03	-5.37	-2.35	0.14	2.28	4.35	6.51	8.88	11.4	13.98	16.46	18.71	20.58	21.95	22.7	22.74	22.1	20.9	19.32	17.57	15.72	13.7	11.31	8.35	4.79	0.83	-3.06	-6.27	-8.23	-8.53	-7.08	-4.04	0.16	4.97	9.74	13.9	16.94	18.62	18.89	17.95	16.07	13.57	10.69	7.61	4.57	1.86	-0.25	-1.59	-2.2	-2.31	-2.25	-2.33	-2.71	-3.37	-4.21	-5.08	-5.93	-6.76	-7.69	-8.86	-10.39	-12.28	-14.36	-16.24	-17.33	-17.09	-15.15	-11.48	-6.46	-0.79	4.79
8.88	11.4	13.98	16.46	18.71	20.58	21.95	22.7	22.74	22.1	20.9	19.32	17.57	15.72	13.7	11.31	8.35	4.79	0.83	-3.06	-6.27	-8.23	-8.53	-7.08	-4.04	0.16	4.97	9.74	13.9	16.94	18.62	18.89	17.95	16.07	13.57	10.69	7.61	4.57	1.86	-0.25	-1.59	-2.2	-2.31	-2.25	-2.33	-2.71	-3.37	-4.21	-5.08	-5.93	-6.76	-7.69	-8.86	-10.39	-12.28	-14.36	-16.24	-17.33	-17.09	-15.15	-11.48	-6.46	-0.79	4.79	9.61	13.24	15.48	16.3	15.79	14.1	11.49	8.35	5.13	2.31	0.25	-0.92	-1.35	-1.37	-1.4	-1.76	-2.57	-3.72	-4.96	-6.06	-6.88	-7.49	-8.05	-8.76	-9.77	-11.12	-12.74	-14.47	-16.02	-16.95	-16.74	-14.95	-11.4	-6.33	-0.45	5.35	10.2	13.56	15.3	15.58	14.75	13.09	10.88	8.33	5.71	3.31	1.44	0.28	-0.17	-0.12	0.08	0.05	-0.46	-1.48	-2.85	-4.35	-5.82	-7.24	-8.75	-10.6	-12.98	-15.94	-19.31	-22.65
9.61	13.24	15.48	16.3	15.79	14.1	11.49	8.35	5.13	2.31	0.25	-0.92	-1.35	-1.37	-1.4	-1.76	-2.57	-3.72	-4.96	-6.06	-6.88	-7.49	-8.05	-8.76	-9.77	-11.12	-12.74	-14.47	-16.02	-16.95	-16.74	-14.95	-11.4	-6.33	-0.45	5.35	10.2	13.56	15.3	15.58	14.75	13.09	10.88	8.33	5.71	3.31	1.44	0.28	-0.17	-0.12	0.08	0.05	-0.46	-1.48	-2.85	-4.35	-5.82	-7.24	-8.75	-10.6	-12.98	-15.94	-19.31	-22.65	-25.35	-26.68	-26.07	-23.31	-18.64	-12.77	-6.64	-1.15	3.07	5.8	7.1	7.15	6.12	4.1	1.24	-2.2	-5.84	-9.28	-12.19	-14.49	-16.27	-17.79	-19.26	-20.78	-22.27	-23.52	-24.31	-24.46	-23.96	-22.88	-21.39	-19.66	-17.82	-15.97	-14.13	-12.21	-10.01	-7.2	-3.46	1.4	7.35	14.02	20.82	27.15	32.49	36.55	39.22	40.49	40.36	38.87	36.14	32.46	28.26	24.01	20.12	16.8	14.09	11.91	10.11	8.59	7.22	5.91	4.62	3.31
-25.35	-26.68	-26.07	-23.31	-18.64	-12.77	-6.64	-1.15	3.07	5.8	7.1	7.15	6.12	4.1	1.24	-2.2	-5.84	-9.28	-12.19	-14.49	-16.27	-17.79	-19.26	-20.78	-22.27	-23.52	-24.31	-24.46	-23.96	-22.88	-21.39	-19.66	-17.82	-15.97	-14.13	-12.21	-10.01	-7.2	-3.46	1.4	7.35	14.02	20.82	27.15	32.49	36.55	39.22	40.49	40.36	38.87	36.14	32.46	28.26	24.01	20.12	16.8	14.09	11.91	10.11	8.59	7.22	5.91	4.62	3.31	2.03	0.81	-0.35	-1.58	-3.09	-5.14	-7.85	-11.23	-15.01	-18.72	-21.74	-23.44	-23.35	-21.25	-17.36	-12.25	-6.74	-1.65	2.46	5.43	7.47	9.03	10.54	12.2	13.94	15.48	16.51	16.94	16.86	16.54	16.26	16.11	15.98	15.62	14.71	13.05	10.57	7.41	3.77	-0.06	-3.81	-7.21	-10.11	-12.5	-14.51	-16.41	-18.45	-20.78	-23.26	-25.53	-27.03	-27.23	-25.82	-22.85	-18.71	-14.03	-9.45	-5.47	-2.41	-0.4	0.53	0.44	-0.55	-2.14
2.03	0.81	-0.35	-1.58	-3.09	-5.14	-7.85	-11.23	-15.01	-18.72	-21.74	-23.44	-23.35	-21.25	-17.36	-12.25	-6.74	-1.65	2.46	5.43	7.47	9.03	10.54	12.2	13.94	15.48	16.51	16.94	16.86	16.54	16.26	16.11	15.98	15.62	14.71	13.05	10.57	7.41	3.77	-0.06	-3.81	-7.21	-10.11	-12.5	-14.51	-16.41	-18.45	-20.78	-23.26	-25.53	-27.03	-27.23	-25.82	-22.85	-18.71	-14.03	-9.45	-5.47	-2.41	-0.4	0.53	0.44	-0.55	-2.14	-3.88	-5.3	-5.96	-5.61	-4.27	-2.1	0.69	3.97	7.67	11.73	15.95	19.95	23.2	25.19	25.59	24.39	21.88	18.51	14.7	10.7	6.56	2.27	-2.06	-6.1	-9.35	-11.24	-11.33	-9.49	-5.93	-1.11	4.35	9.83	14.76	18.74	21.49	22.91	23.04	22.04	20.17	17.69	14.93	12.22	9.87	8.12	7.07	6.62	6.49	6.31	5.76	4.66	3.04	1.12	-0.87	-2.72	-4.36	-5.88	-7.46	-9.29	-11.53	-14.3	-17.57	-21.19	-24.8	-27.9
-3.88	-5.3	-5.96	-5.61	-4.27	-2.1	0.69	3.97	7.67	11.73	15.95	19.95	23.2	25.19	25.59	24.39	21.88	18.51	14.7	10.7	6.56	2.27	-2.06	-6.1	-9.35	-11.24	-11.33	-9.49	-5.93	-1.11	4.35	9.83	14.76	18.74	21.49	22.91	23.04	22.04	20.17	17.69	14.93	12.22	9.87	8.12	7.07	6.62	6.49	6.31	5.76	4.66	3.04	1.12	-0.87	-2.72	-4.36	-5.88	-7.46	-9.29	-11.53	-14.3	-17.57	-21.19	-24.8	-27.9	-29.9	-30.23	-28.57	-25.01	-20.03	-14.43	-9.07	-4.66	-1.56	0.17	0.68	0.18	-1.18	-3.24	-5.72	-8.19	-10.04	-10.71	-9.82	-7.37	-3.68	0.71	5.28	9.62	13.46	16.67	19.18	20.91	21.82	21.92	21.24	19.86	17.82	15.18	12	8.41	4.59	0.85	-2.4	-4.69	-5.54	-4.63	-1.85	2.52	7.88	13.42	18.35	22.06	24.32	25.2	24.98	23.94	22.3	20.14	17.54	14.64	11.71	9.13	7.26	6.25	5.98	6.06	6.01	5.45
-29.9	-30.23	-28.57	-25.01	-20.03	-14.43	-9.07	-4.66	-1.56	0.17	0.68	0.18	-1.18	-3.24	-5.72	-8.19	-10.04	-10.71	-9.82	-7.37	-3.68	0.71	5.28	9.62	13.46	16.67	19.18	20.91	21.82	21.92	21.24	19.86	17.82	15.18	12	8.41	4.59	0.85	-2.4	-4.69	-5.54	-4.63	-1.85	2.52	7.88	13.42	18.35	22.06	24.32	25.2	24.98	23.94	22.3	20.14	17.54	14.64	11.71	9.13	7.26	6.25	5.98	6.06	6.01	5.45	4.3	2.76	1.18	-0.19	-1.31	-2.41	-3.76	-5.57	-7.82	-10.37	-13.04	-15.75	-18.45	-21.01	-23.11	-24.2	-23.72	-21.26	-16.84	-10.92	-4.3	2.13	7.67	11.9	14.76	16.39	17.02	16.85	16.05	14.74	13.04	11.08	8.97	6.81	4.72	2.83	1.3	0.25	-0.3	-0.45	-0.41	-0.42	-0.65	-1.2	-2.11	-3.4	-5.01	-6.87	-8.83	-10.76	-12.6	-14.36	-16.09	-17.73	-19.05	-19.59	-18.81	-16.34	-12.2	-6.88	-1.2	3.91	7.75	10.03
4.3	2.76	1.18	-0.19	-1.31	-2.41	-3.76	-5.57	-7.82	-10.37	-13.04	-15.75	-18.45	-21.01	-23.11	-24.2	-23.72	-21.26	-16.84	-10.92	-4.3	2.13	7.67	11.9	14.76	16.39	17.02	16.85	16.05	14.74	13.04	11.08	8.97	6.81	4.72	2.83	1.3	0.25	-0.3	-0.45	-0.41	-0.42	-0.65	-1.2	-2.11	-3.4	-5.01	-6.87	-8.83	-10.76	-12.6	-14.36	-16.09	-17.73	-19.05	-19.59	-18.81	-16.34	-12.2	-6.88	-1.2	3.91	7.75	10.03	10.83	10.51	9.41	7.78	5.69	3.16	0.26	-2.83	-5.87	-8.59	-10.81	-12.43	-13.43	-13.9	-14	-14.01	-14.28	-15.09	-16.57	-18.64	-21.04	-23.46	-25.64	-27.49	-29	-30.24	-31.2	-31.77	-31.68	-30.5	-27.74	-22.96	-16.01	-7.11	3.11	13.73	23.75	32.31	38.86	43.18	45.32	45.51	44.08	41.39	37.83	33.79	29.66	25.78	22.42	19.75	17.77	16.38	15.29	14.2	12.87	11.26	9.5	7.83	6.47	5.39	4.32	2.85	0.65	-2.39
10.83	10.51	9.41	7.78	5.69	3.16	0.26	-2.83	-5.87	-8.59	-10.81	-12.43	-13.43	-13.9	-14	-14.01	-14.28	-15.09	-16.57	-18.64	-21.04	-23.46	-25.64	-27.49	-29	-30.24	-31.2	-31.77	-31.68	-30.5	-27.74	-22.96	-16.01	-7.11	3.11	13.73	23.75	32.31	38.86	43.18	45.32	45.51	44.08	41.39	37.83	33.79	29.66	25.78	22.42	19.75	17.77	16.38	15.29	14.2	12.87	11.26	9.5	7.83	6.47	5.39	4.32	2.85	0.65	-2.39	-6.05	-9.9	-13.45	-16.34	-18.31	-19.13	-18.56	-16.36	-12.47	-7.16	-1.06	4.96	10.11	13.86	16.09	17	16.82	15.77	13.92	11.41	8.49	5.59	3.19	1.59	0.79	0.49	0.24	-0.31	-1.29	-2.62	-4.07	-5.47	-6.79	-8.09	-9.47	-11.02	-12.8	-14.94	-17.51	-20.54	-23.84	-26.98	-29.31	-30.17	-29.12	-26.06	-21.26	-15.27	-8.76	-2.39	3.28	7.84	11.06	12.89	13.45	13.01	11.88	10.41	8.91	7.63	6.77	6.45	6.65	7.24
-6.05	-9.9	-13.45	-16.34	-18.31	-19.13	-18.56	-16.36	-12.47	-7.16	-1.06	4.96	10.11	13.86	16.09	17	16.82	15.77	13.92	11.41	8.49	5.59	3.19	1.59	0.79	0.49	0.24	-0.31	-1.29	-2.62	-4.07	-5.47	-6.79	-8.09	-9.47	-11.02	-12.8	-14.94	-17.51	-20.54	-23.84	-26.98	-29.31	-30.17	-29.12	-26.06	-21.26	-15.27	-8.76	-2.39	3.28	7.84	11.06	12.89	13.45	13.01	11.88	10.41	8.91	7.63	6.77	6.45	6.65	7.24	7.92	8.4	8.42	7.88	6.86	5.59	4.28	3.1	2.01	0.91	-0.31	-1.69	-3.1	-4.34	-5.19	-5.45	-4.95	-3.58	-1.24	2.1	6.3	11.05	15.85	20.19	23.65	25.98	27.14	27.18	26.21	24.33	21.66	18.39	14.78	11.18	7.9	5.17	3.02	1.38	0.05	-1.06	-2.03	-2.88	-3.61	-4.3	-5.08	-6.07	-7.38	-9.06	-11.11	-13.5	-16.12	-18.72	-20.89	-22.12	-21.98	-20.29	-17.22	-13.22	-8.89	-4.73	-1.09	1.88	4.08	5.39
7.92	8.4	8.42	7.88	6.86	5.59	4.28	3.1	2.01	0.91	-0.31	-1.69	-3.1	-4.34	-5.19	-5.45	-4.95	-3.58	-1.24	2.1	6.3	11.05	15.85	20.19	23.65	25.98	27.14	27.18	26.21	24.33	21.66	18.39	14.78	11.18	7.9	5.17	3.02	1.38	0.05	-1.06	-2.03	-2.88	-3.61	-4.3	-5.08	-6.07	-7.38	-9.06	-11.11	-13.5	-16.12	-18.72	-20.89	-22.12	-21.98	-20.29	-17.22	-13.22	-8.89	-4.73	-1.09	1.88	4.08	5.39	5.67	4.85	3.01	0.4	-2.54	-5.35	-7.69	-9.38	-10.44	-11.06	-11.47	-11.95	-12.66	-13.7	-15.04	-16.56	-18.14	-19.68	-21.17	-22.68	-24.31	-26.12	-28.04	-29.78	-30.86	-30.66	-28.66	-24.56	-18.48	-10.9	-2.55	5.78	13.43	19.89	24.9	28.32	30.06	30.19	28.88	26.49	23.49	20.41	17.7	15.59	14.12	13.06	12.12	11.04	9.69	8.09	6.35	4.59	2.84	1.02	-0.97	-3.23	-5.71	-8.27	-10.66	-12.59	-13.78	-14	-13.1	-11.04
5.67	4.85	3.01	0.4	-2.54	-5.35	-7.69	-9.38	-10.44	-11.06	-11.47	-11.95	-12.66	-13.7	-15.04	-16.56	-18.14	-19.68	-21.17	-22.68	-24.31	-26.12	-28.04	-29.78	-30.86	-30.66	-28.66	-24.56	-18.48	-10.9	-2.55	5.78	13.43	19.89	24.9	28.32	30.06	30.19	28.88	26.49	23.49	20.41	17.7	15.59	14.12	13.06	12.12	11.04	9.69	8.09	6.35	4.59	2.84	1.02	-0.97	-3.23	-5.71	-8.27	-10.66	-12.59	-13.78	-14	-13.1	-11.04	-7.99	-4.26	-0.31	3.37	6.39	8.41	9.24	8.79	7.08	4.25	0.62	-3.42	-7.44	-11.12	-14.29	-16.89	-18.95	-20.5	-21.52	-22.03	-22.01	-21.49	-20.45	-18.86	-16.68	-13.98	-10.92	-7.8	-5.02	-2.91	-1.65	-1.16	-1.1	-0.92	-0.04	1.93	5.1	9.21	13.79	18.29	22.29	25.5	27.74	28.89	28.85	27.6	25.3	22.28	18.98	15.83	13.13	11.03	9.5	8.42	7.64	6.96	6.24	5.4	4.41	3.33	2.19	0.96	-0.53	-2.51
-7.99	-4.26	-0.31	3.37	6.39	8.41	9.24	8.79	7.08	4.25	0.62	-3.42	-7.44	-11.12	-14.29	-16.89	-18.95	-20.5	-21.52	-22.03	-22.01	-21.49	-20.45	-18.86	-16.68	-13.98	-10.92	-7.8	-5.02	-2.91	-1.65	-1.16	-1.1	-0.92	-0.04	1.93	5.1	9.21	13.79	18.29	22.29	25.5	27.74	28.89	28.85	27.6	25.3	22.28	18.98	15.83	13.13	11.03	9.5	8.42	7.64	6.96	6.24	5.4	4.41	3.33	2.19	0.96	-0.53	-2.51	-5.17	-8.54	-12.42	-16.39	-19.89	-22.36	-23.36	-22.64	-20.2	-16.28	-11.3	-5.77	-0.25	4.77	8.85	11.72	13.18	13.24	12.06	9.98	7.42	4.75	2.28	0.22	-1.33	-2.27	-2.56	-2.26	-1.49	-0.49	0.49	1.23	1.63	1.62	1.18	0.23	-1.36	-3.67	-6.69	-10.16	-13.67	-16.61	-18.4	-18.55	-16.78	-13.13	-7.93	-1.77	4.63	10.58	15.56	19.29	21.71	22.97	23.33	23.02	22.2	20.93	19.23	17.09	14.63	12.02	9.46	7.1
-5.17	-8.54	-12.42	-16.39	-19.89	-22.36	-23.36	-22.64	-20.2	-16.28	-11.3	-5.77	-0.25	4.77	8.85	11.72	13.18	13.24	12.06	9.98	7.42	4.75	2.28	0.22	-1.33	-2.27	-2.56	-2.26	-1.49	-0.49	0.49	1.23	1.63	1.62	1.18	0.23	-1.36	-3.67	-6.69	-10.16	-13.67	-16.61	-18.4	-18.55	-16.78	-13.13	-7.93	-1.77	4.63	10.58	15.56	19.29	21.71	22.97	23.33	23.02	22.2	20.93	19.23	17.09	14.63	12.02	9.46	7.1	4.94	2.84	0.68	-1.59	-3.89	-6.03	-7.89	-9.52	-11.15	-13.11	-15.63	-18.76	-22.34	-26.13	-29.86	-33.32	-36.28	-38.34	-39.02	-37.83	-34.56	-29.38	-22.9	-15.94	-9.22	-3.2	2.01	6.48	10.34	13.59	16.18	18.02	19.14	19.66	19.79	19.75	19.71	19.76	19.91	20.1	20.23	20.15	19.71	18.77	17.29	15.28	12.84	10.07	7.08	3.92	0.6	-2.9	-6.62	-10.61	-14.81	-18.95	-22.56	-24.93	-25.35	-23.29	-18.61	-11.7	-3.37	5.34
4.94	2.84	0.68	-1.59	-3.89	-6.03	-7.89	-9.52	-11.15	-13.11	-15.63	-18.76	-22.34	-26.13	-29.86	-33.32	-36.28	-38.34	-39.02	-37.83	-34.56	-29.38	-22.9	-15.94	-9.22	-3.2	2.01	6.48	10.34	13.59	16.18	18.02	19.14	19.66	19.79	19.75	19.71	19.76	19.91	20.1	20.23	20.15	19.71	18.77	17.29	15.28	12.84	10.07	7.08	3.92	0.6	-2.9	-6.62	-10.61	-14.81	-18.95	-22.56	-24.93	-25.35	-23.29	-18.61	-11.7	-3.37	5.34	13.46	20.29	25.49	29.03	31.06	31.81	31.48	30.25	28.3	25.86	23.18	20.52	18.11	16.05	14.34	12.9	11.66	10.54	9.5	8.44	7.26	5.83	4.1	2.11	0.02	-2.03	-3.96	-5.82	-7.75	-9.96	-12.51	-15.28	-17.93	-19.94	-20.74	-19.85	-17.04	-12.42	-6.46	0.08	6.34	11.53	15.17	17.12	17.59	16.95	15.61	13.87	11.88	9.71	7.43	5.23	3.3	1.85	0.92	0.39	-0.04	-0.65	-1.56	-2.72	-3.89	-4.85	-5.54	-6.09
13.46	20.29	25.49	29.03	31.06	31.81	31.48	30.25	28.3	25.86	23.18	20.52	18.11	16.05	14.34	12.9	11.66	10.54	9.5	8.44	7.26	5.83	4.1	2.11	0.02	-2.03	-3.96	-5.82	-7.75	-9.96	-12.51	-15.28	-17.93	-19.94	-20.74	-19.85	-17.04	-12.42	-6.46	0.08	6.34	11.53	15.17	17.12	17.59	16.95	15.61	13.87	11.88	9.71	7.43	5.23	3.3	1.85	0.92	0.39	-0.04	-0.65	-1.56	-2.72	-3.89	-4.85	-5.54	-6.09	-6.72	-7.63	-8.87	-10.39	-12.11	-14.03	-16.2	-18.53	-20.73	-22.16	-22.11	-20.03	-15.84	-9.95	-3.18	3.55	9.53	14.3	17.73	19.81	20.6	20.18	18.67	16.33	13.49	10.55	7.92	5.89	4.61	4.02	3.88	3.88	3.71	3.2	2.36	1.33	0.33	-0.52	-1.23	-1.94	-2.89	-4.26	-6.19	-8.7	-11.66	-14.81	-17.72	-19.81	-20.53	-19.46	-16.48	-11.88	-6.25	-0.36	5.09	9.54	12.72	14.53	15.1	14.61	13.33	11.52	9.43	7.26
-6.72	-7.63	-8.87	-10.39	-12.11	-14.03	-16.2	-18.53	-20.73	-22.16	-22.11	-20.03	-15.84	-9.95	-3.18	3.55	9.53	14.3	17.73	19.81	20.6	20.18	18.67	16.33	13.49	10.55	7.92	5.89	4.61	4.02	3.88	3.88	3.71	3.2	2.36	1.33	0.33	-0.52	-1.23	-1.94	-2.89	-4.26	-6.19	-8.7	-11.66	-14.81	-17.72	-19.81	-20.53	-19.46	-16.48	-11.88	-6.25	-0.36	5.09	9.54	12.72	14.53	15.1	14.61	13.33	11.52	9.43	7.26	5.16	3.29	1.73	0.58	-0.15	-0.54	-0.74	-0.94	-1.23	-1.6	-1.95	-2.16	-2.27	-2.45	-3.07	-4.46	-6.86	-10.18	-14.02	-17.68	-20.33	-21.25	-20.01	-16.63	-11.57	-5.57	0.53	6	10.34	13.29	14.8	14.97	13.96	12.08	9.66	7.08	4.71	2.79	1.43	0.59	0.12	-0.2	-0.59	-1.2	-2.08	-3.13	-4.18	-5.08	-5.79	-6.43	-7.27	-8.6	-10.6	-13.24	-16.27	-19.29	-21.81	-23.35	-23.51	-22.04	-18.89	-14.25	-8.57	-2.47
5.16	3.29	1.73	0.58	-0.15	-0.54	-0.74	-0.94	-1.23	-1.6	-1.95	-2.16	-2.27	-2.45	-3.07	-4.46	-6.86	-10.18	-14.02	-17.68	-20.33	-21.25	-20.01	-16.63	-11.57	-5.57	0.53	6	10.34	13.29	14.8	14.97	13.96	12.08	9.66	7.08	4.71	2.79	1.43	0.59	0.12	-0.2	-0.59	-1.2	-2.08	-3.13	-4.18	-5.08	-5.79	-6.43	-7.27	-8.6	-10.6	-13.24	-16.27	-19.29	-21.81	-23.35	-23.51	-22.04	-18.89	-14.25	-8.57	-2.47	3.39	8.41	12.19	14.58	15.63	15.52	14.46	12.68	10.42	7.92	5.52	3.49	2.09	1.33	1.02	0.79	0.27	-0.73	-2.16	-3.74	-5.12	-6.13	-6.81	-7.41	-8.29	-9.79	-12.06	-15.05	-18.45	-21.69	-24.08	-24.93	-23.72	-20.32	-15.07	-8.66	-1.99	4.15	9.22	12.97	15.39	16.56	16.63	15.7	13.99	11.8	9.51	7.46	5.88	4.79	4.05	3.49	2.98	2.52	2.19	1.99	1.83	1.49	0.79	-0.32	-1.74	-3.29	-4.93	-6.76
3.39	8.41	12.19	14.58	15.63	15.52	14.46	12.68	10.42	7.92	5.52	3.49	2.09	1.33	1.02	0.79	0.27	-0.73	-2.16	-3.74	-5.12	-6.13	-6.81	-7.41	-8.29	-9.79	-12.06	-15.05	-18.45	-21.69	-24.08	-24.93	-23.72	-20.32	-15.07	-8.66	-1.99	4.15	9.22	12.97	15.39	16.56	16.63	15.7	13.99	11.8	9.51	7.46	5.88	4.79	4.05	3.49	2.98	2.52	2.19	1.99	1.83	1.49	0.79	-0.32	-1.74	-3.29	-4.93	-6.76	-9.05	-11.91	-15.15	-18.15	-20.04	-20.07	-17.88	-13.66	-8.07	-1.89	4.18	9.65	14.23	17.73	20	20.97	20.68	19.34	17.22	14.71	12.12	9.73	7.73	6.24	5.28	4.77	4.53	4.35	4.03	3.43	2.52	1.33	-0.08	-1.62	-3.22	-4.87	-6.63	-8.6	-10.93	-13.66	-16.64	-19.47	-21.52	-22.14	-20.85	-17.52	-12.46	-6.31	0.1	6.05	11.04	14.86	17.52	19.11	19.72	19.36	18.07	15.98	13.4	10.76	8.55	7.1	6.48	6.44
-9.05	-11.91	-15.15	-18.15	-20.04	-20.07	-17.88	-13.66	-8.07	-1.89	4.18	9.65	14.23	17.73	20	20.97	20.68	19.34	17.22	14.71	12.12	9.73	7.73	6.24	5.28	4.77	4.53	4.35	4.03	3.43	2.52	1.33	-0.08	-1.62	-3.22	-4.87	-6.63	-8.6	-10.93	-13.66	-16.64	-19.47	-21.52	-22.14	-20.85	-17.52	-12.46	-6.31	0.1	6.05	11.04	14.86	17.52	19.11	19.72	19.36	18.07	15.98	13.4	10.76	8.55	7.1	6.48	6.44	6.56	6.44	5.86	4.83	3.51	2.1	0.71	-0.64	-2.01	-3.46	-5.03	-6.72	-8.55	-10.56	-12.76	-15.04	-17.06	-18.33	-18.28	-16.51	-12.92	-7.86	-1.96	4.02	9.43	13.85	17.06	18.99	19.63	19.04	17.38	14.97	12.21	9.56	7.36	5.79	4.88	4.52	4.51	4.59	4.52	4.07	3.18	1.95	0.64	-0.48	-1.29	-1.87	-2.53	-3.62	-5.37	-7.83	-10.83	-14.02	-17.02	-19.38	-20.64	-20.35	-18.16	-14	-8.16	-1.39	5.34	11.08
6.56	6.44	5.86	4.83	3.51	2.1	0.71	-0.64	-2.01	-3.46	-5.03	-6.72	-8.55	-10.56	-12.76	-15.04	-17.06	-18.33	-18.28	-16.51	-12.92	-7.86	-1.96	4.02	9.43	13.85	17.06	18.99	19.63	19.04	17.38	14.97	12.21	9.56	7.36	5.79	4.88	4.52	4.51	4.59	4.52	4.07	3.18	1.95	0.64	-0.48	-1.29	-1.87	-2.53	-3.62	-5.37	-7.83	-10.83	-14.02	-17.02	-19.38	-20.64	-20.35	-18.16	-14	-8.16	-1.39	5.34	11.08	15.18	17.46	18.12	17.57	16.22	14.33	12.12	9.79	7.61	5.85	4.68	4.06	3.77	3.58	3.29	2.87	2.37	1.87	1.37	0.77	-0.07	-1.23	-2.74	-4.52	-6.5	-8.65	-10.99	-13.55	-16.26	-18.85	-20.84	-21.65	-20.77	-17.96	-13.37	-7.48	-1.02	5.23	10.59	14.58	17.01	17.94	17.67	16.59	15.08	13.41	11.72	10.07	8.49	7.1	5.98	5.23	4.81	4.57	4.31	3.86	3.13	2.17	1.09	0.01	-1.07	-2.26	-3.7	-5.49
15.18	17.46	18.12	17.57	16.22	14.33	12.12	9.79	7.61	5.85	4.68	4.06	3.77	3.58	3.29	2.87	2.37	1.87	1.37	0.77	-0.07	-1.23	-2.74	-4.52	-6.5	-8.65	-10.99	-13.55	-16.26	-18.85	-20.84	-21.65	-20.77	-17.96	-13.37	-7.48	-1.02	5.23	10.59	14.58	17.01	17.94	17.67	16.59	15.08	13.41	11.72	10.07	8.49	7.1	5.98	5.23	4.81	4.57	4.31	3.86	3.13	2.17	1.09	0.01	-1.07	-2.26	-3.7	-5.49	-7.65	-10.05	-12.54	-14.96	-17.24	-19.29	-20.87	-21.6	-20.93	-18.46	-14.07	-8.16	-1.49	4.98	10.47	14.53	17.1	18.37	18.6	18.04	16.86	15.25	13.47	11.72	10.18	8.87	7.74	6.68	5.67	4.73	3.9	3.15	2.36	1.32	-0.15	-2.1	-4.42	-6.9	-9.32	-11.56	-13.62	-15.61	-17.63	-19.66	-21.54	-22.98	-23.54	-22.84	-20.58	-16.7	-11.39	-5.09	1.53	7.73	12.84	16.4	18.22	18.44	17.36	15.41	12.98	10.42	7.96	5.81
-7.65	-10.05	-12.54	-14.96	-17.24	-19.29	-20.87	-21.6	-20.93	-18.46	-14.07	-8.16	-1.49	4.98	10.47	14.53	17.1	18.37	18.6	18.04	16.86	15.25	13.47	11.72	10.18	8.87	7.74	6.68	5.67	4.73	3.9	3.15	2.36	1.32	-0.15	-2.1	-4.42	-6.9	-9.32	-11.56	-13.62	-15.61	-17.63	-19.66	-21.54	-22.98	-23.54	-22.84	-20.58	-16.7	-11.39	-5.09	1.53	7.73	12.84	16.4	18.22	18.44	17.36	15.41	12.98	10.42	7.96	5.81	4.08	2.9	2.27	2.15	2.37	2.72	2.96	2.9	2.46	1.69	0.75	-0.18	-0.97	-1.66	-2.37	-3.37	-4.9	-7.07	-9.86	-13.01	-16.11	-18.59	-19.88	-19.49	-17.2	-13.14	-7.79	-1.85	3.92	8.9	12.73	15.28	16.6	16.86	16.23	14.94	13.24	11.38	9.56	7.91	6.46	5.22	4.19	3.39	2.88	2.67	2.76	3.02	3.32	3.53	3.58	3.45	3.13	2.56	1.59	-0.01	-2.38	-5.52	-9.16	-12.83	-15.94	-17.99	-18.66	-17.85
4.08	2.9	2.27	2.15	2.37	2.72	2.96	2.9	2.46	1.69	0.75	-0.18	-0.97	-1.66	-2.37	-3.37	-4.9	-7.07	-9.86	-13.01	-16.11	-18.59	-19.88	-19.49	-17.2	-13.14	-7.79	-1.85	3.92	8.9	12.73	15.28	16.6	16.86	16.23	14.94	13.24	11.38	9.56	7.91	6.46	5.22	4.19	3.39	2.88	2.67	2.76	3.02	3.32	3.53	3.58	3.45	3.13	2.56	1.59	-0.01	-2.38	-5.52	-9.16	-12.83	-15.94	-17.99	-18.66	-17.85	-15.64	-12.26	-8.03	-3.38	1.15	4.98	7.61	8.79	8.56	7.23	5.26	3.11	1.08	-0.63	-1.92	-2.73	-3.02	-2.8	-2.21	-1.52	-1.02	-0.95	-1.35	-2.17	-3.21	-4.29	-5.34	-6.35	-7.45	-8.77	-10.43	-12.48	-14.89	-17.48	-19.88	-21.58	-21.99	-20.62	-17.23	-11.99	-5.43	1.59	8.19	13.68	17.65	19.99	20.84	20.47	19.14	17.14	14.77	12.28	9.9	7.79	6.04	4.72	3.8	3.19	2.81	2.53	2.26	1.94	1.54	1.01
-15.64	-12.26	-8.03	-3.38	1.15	4.98	7.61	8.79	8.56	7.23	5.26	3.11	1.08	-0.63	-1.92	-2.73	-3.02	-2.8	-2.21	-1.52	-1.02	-0.95	-1.35	-2.17	-3.21	-4.29	-5.34	-6.35	-7.45	-8.77	-10.43	-12.48	-14.89	-17.48	-19.88	-21.58	-21.99	-20.62	-17.23	-11.99	-5.43	1.59	8.19	13.68	17.65	19.99	20.84	20.47	19.14	17.14	14.77	12.28	9.9	7.79	6.04	4.72	3.8	3.19	2.81	2.53	2.26	1.94	1.54	1.01	0.27	-0.78	-2.22	-4.08	-6.31	-8.77	-11.31	-13.7	-15.61	-16.64	-16.37	-14.48	-10.94	-6.05	-0.39	5.36	10.61	14.9	17.96	19.67	20	19.05	17.03	14.31	11.31	8.45	6.1	4.46	3.55	3.22	3.19	3.15	2.88	2.29	1.46	0.53	-0.34	-1.12	-1.86	-2.72	-3.83	-5.31	-7.23	-9.59	-12.25	-14.94	-17.2	-18.5	-18.38	-16.61	-13.29	-8.8	-3.68	1.54	6.39	10.52	13.67	15.66	16.35	15.76	14.05	11.55	8.72	6.03
0.27	-0.78	-2.22	-4.08	-6.31	-8.77	-11.31	-13.7	-15.61	-16.64	-16.37	-14.48	-10.94	-6.05	-0.39	5.36	10.61	14.9	17.96	19.67	20	19.05	17.03	14.31	11.31	8.45	6.1	4.46	3.55	3.22	3.19	3.15	2.88	2.29	1.46	0.53	-0.34	-1.12	-1.86	-2.72	-3.83	-5.31	-7.23	-9.59	-12.25	-14.94	-17.2	-18.5	-18.38	-16.61	-13.29	-8.8	-3.68	1.54	6.39	10.52	13.67	15.66	16.35	15.76	14.05	11.55	8.72	6.03	3.85	2.36	1.52	1.11	0.84	0.49	-0.05	-0.72	-1.41	-2	-2.48	-2.97	-3.62	-4.57	-5.84	-7.4	-9.2	-11.22	-13.41	-15.62	-17.46	-18.36	-17.7	-15.11	-10.7	-5.05	0.94	6.37	10.68	13.71	15.58	16.52	16.59	15.75	13.97	11.38	8.41	5.62	3.57	2.53	2.41	2.85	3.34	3.49	3.14	2.32	1.24	0.1	-0.97	-1.95	-2.91	-4	-5.33	-7.02	-9.08	-11.41	-13.82	-15.99	-17.5	-17.92	-16.89	-14.24	-10.09	-4.88
3.85	2.36	1.52	1.11	0.84	0.49	-0.05	-0.72	-1.41	-2	-2.48	-2.97	-3.62	-4.57	-5.84	-7.4	-9.2	-11.22	-13.41	-15.62	-17.46	-18.36	-17.7	-15.11	-10.7	-5.05	0.94	6.37	10.68	13.71	15.58	16.52	16.59	15.75	13.97	11.38	8.41	5.62	3.57	2.53	2.41	2.85	3.34	3.49	3.14	2.32	1.24	0.1	-0.97	-1.95	-2.91	-4	-5.33	-7.02	-9.08	-11.41	-13.82	-15.99	-17.5	-17.92	-16.89	-14.24	-10.09	-4.88	0.75	6.13	10.66	13.98	15.95	16.58	16.02	14.44	12.12	9.41	6.69	4.31	2.54	1.49	1.1	1.18	1.46	1.67	1.61	1.18	0.42	-0.54	-1.56	-2.57	-3.6	-4.77	-6.26	-8.16	-10.45	-12.95	-15.33	-17.19	-18.12	-17.79	-15.99	-12.72	-8.24	-3.02	2.32	7.17	11.06	13.8	15.4	16.03	15.88	15.09	13.71	11.86	9.7	7.56	5.78	4.63	4.14	4.09	4.1	3.84	3.14	2.07	0.87	-0.26	-1.22	-2.06	-2.94	-4.05
0.75	6.13	10.66	13.98	15.95	16.58	16.02	14.44	12.12	9.41	6.69	4.31	2.54	1.49	1.1	1.18	1.46	1.67	1.61	1.18	0.42	-0.54	-1.56	-2.57	-3.6	-4.77	-6.26	-8.16	-10.45	-12.95	-15.33	-17.19	-18.12	-17.79	-15.99	-12.72	-8.24	-3.02	2.32	7.17	11.06	13.8	15.4	16.03	15.88	15.09	13.71	11.86	9.7	7.56	5.78	4.63	4.14	4.09	4.1	3.84	3.14	2.07	0.87	-0.26	-1.22	-2.06	-2.94	-4.05	-5.52	-7.4	-9.66	-12.16	-14.62	-16.6	-17.57	-17.06	-14.84	-11	-5.95	-0.31	5.25	10.19	14.13	16.84	18.2	18.2	16.93	14.64	11.71	8.63	5.88	3.8	2.52	1.93	1.79	1.8	1.73	1.45	0.94	0.25	-0.56	-1.45	-2.41	-3.48	-4.73	-6.25	-8.11	-10.34	-12.86	-15.45	-17.74	-19.26	-19.49	-18.09	-14.98	-10.43	-5.02	0.51	5.48	9.47	12.33	14.14	15.05	15.15	14.46	13.02	10.96	8.55	6.16	4.12	2.61	1.66
-5.52	-7.4	-9.66	-12.16	-14.62	-16.6	-17.57	-17.06	-14.84	-11	-5.95	-0.31	5.25	10.19	14.13	16.84	18.2	18.2	16.93	14.64	11.71	8.63	5.88	3.8	2.52	1.93	1.79	1.8	1.73	1.45	0.94	0.25	-0.56	-1.45	-2.41	-3.48	-4.73	-6.25	-8.11	-10.34	-12.86	-15.45	-17.74	-19.26	-19.49	-18.09	-14.98	-10.43	-5.02	0.51	5.48	9.47	12.33	14.14	15.05	15.15	14.46	13.02	10.96	8.55	6.16	4.12	2.61	1.66	1.13	0.85	0.64	0.37	-0.05	-0.66	-1.45	-2.4	-3.47	-4.64	-5.93	-7.39	-9.05	-10.91	-12.88	-14.82	-16.48	-17.54	-17.62	-16.34	-13.44	-8.97	-3.31	2.84	8.62	13.26	16.31	17.68	17.61	16.47	14.66	12.49	10.19	7.96	5.99	4.47	3.53	3.18	3.27	3.53	3.64	3.39	2.71	1.68	0.46	-0.84	-2.2	-3.7	-5.42	-7.37	-9.45	-11.51	-13.42	-15.07	-16.4	-17.24	-17.39	-16.54	-14.44	-11.02	-6.49	-1.27	4.03	8.86
1.13	0.85	0.64	0.37	-0.05	-0.66	-1.45	-2.4	-3.47	-4.64	-5.93	-7.39	-9.05	-10.91	-12.88	-14.82	-16.48	-17.54	-17.62	-16.34	-13.44	-8.97	-3.31	2.84	8.62	13.26	16.31	17.68	17.61	16.47	14.66	12.49	10.19	7.96	5.99	4.47	3.53	3.18	3.27	3.53	3.64	3.39	2.71	1.68	0.46	-0.84	-2.2	-3.7	-5.42	-7.37	-9.45	-11.51	-13.42	-15.07	-16.4	-17.24	-17.39	-16.54	-14.44	-11.02	-6.49	-1.27	4.03	8.86	12.77	15.49	16.92	17.13	16.26	14.59	12.46	10.18	8.03	6.15	4.61	3.43	2.65	2.27	2.23	2.39	2.44	2.13	1.31	0.08	-1.3	-2.54	-3.51	-4.32	-5.21	-6.44	-8.11	-10.14	-12.35	-14.5	-16.41	-17.82	-18.43	-17.86	-15.78	-12.06	-6.98	-1.16	4.58	9.45	12.98	15.04	15.83	15.65	14.83	13.57	12.02	10.3	8.57	6.99	5.73	4.87	4.41	4.23	4.17	4.11	3.91	3.5	2.81	1.85	0.63	-0.74	-2.14	-3.44
12.77	15.49	16.92	17.13	16.26	14.59	12.46	10.18	8.03	6.15	4.61	3.43	2.65	2.27	2.23	2.39	2.44	2.13	1.31	0.08	-1.3	-2.54	-3.51	-4.32	-5.21	-6.44	-8.11	-10.14	-12.35	-14.5	-16.41	-17.82	-18.43	-17.86	-15.78	-12.06	-6.98	-1.16	4.58	9.45	12.98	15.04	15.83	15.65	14.83	13.57	12.02	10.3	8.57	6.99	5.73	4.87	4.41	4.23	4.17	4.11	3.91	3.5	2.81	1.85	0.63	-0.74	-2.14	-3.44	-4.57	-5.57	-6.62	-7.91	-9.63	-11.79	-14.22	-16.55	-18.3	-19	-18.22	-15.78	-11.73	-6.45	-0.55	5.21	10.17	13.9	16.25	17.36	17.48	16.84	15.62	13.94	11.98	10.01	8.35	7.24	6.79	6.85	7.16	7.4	7.35	6.92	6.15	5.08	3.77	2.24	0.52	-1.28	-3	-4.46	-5.58	-6.45	-7.35	-8.61	-10.49	-13.01	-15.85	-18.42	-20	-19.95	-17.93	-14.01	-8.64	-2.51	3.57	8.93	13.11	15.9	17.31	17.51	16.73	15.21
-4.57	-5.57	-6.62	-7.91	-9.63	-11.79	-14.22	-16.55	-18.3	-19	-18.22	-15.78	-11.73	-6.45	-0.55	5.21	10.17	13.9	16.25	17.36	17.48	16.84	15.62	13.94	11.98	10.01	8.35	7.24	6.79	6.85	7.16	7.4	7.35	6.92	6.15	5.08	3.77	2.24	0.52	-1.28	-3	-4.46	-5.58	-6.45	-7.35	-8.61	-10.49	-13.01	-15.85	-18.42	-20	-19.95	-17.93	-14.01	-8.64	-2.51	3.57	8.93	13.11	15.9	17.31	17.51	16.73	15.21	13.19	10.88	8.52	6.33	4.58	3.46	3.06	3.26	3.79	4.24	4.27	3.7	2.58	1.14	-0.32	-1.62	-2.73	-3.79	-4.97	-6.42	-8.17	-10.18	-12.38	-14.71	-17.06	-19.18	-20.65	-20.96	-19.68	-16.63	-12.02	-6.41	-0.56	4.84	9.28	12.54	14.63	15.67	15.82	15.2	13.95	12.23	10.23	8.23	6.48	5.18	4.36	3.98	3.85	3.79	3.64	3.33	2.84	2.16	1.32	0.29	-0.91	-2.28	-3.78	-5.38	-7.08	-8.89	-10.89	-13.11
13.19	10.88	8.52	6.33	4.58	3.46	3.06	3.26	3.79	4.24	4.27	3.7	2.58	1.14	-0.32	-1.62	-2.73	-3.79	-4.97	-6.42	-8.17	-10.18	-12.38	-14.71	-17.06	-19.18	-20.65	-20.96	-19.68	-16.63	-12.02	-6.41	-0.56	4.84	9.28	12.54	14.63	15.67	15.82	15.2	13.95	12.23	10.23	8.23	6.48	5.18	4.36	3.98	3.85	3.79	3.64	3.33	2.84	2.16	1.32	0.29	-0.91	-2.28	-3.78	-5.38	-7.08	-8.89	-10.89	-13.11	-15.44	-17.6	-19.1	-19.34	-17.89	-14.61	-9.8	-4.07	1.81	7.13	11.42	14.44	16.21	16.82	16.43	15.25	13.49	11.43	9.29	7.32	5.71	4.55	3.85	3.52	3.4	3.3	3.07	2.62	1.94	1.03	-0.06	-1.3	-2.63	-4	-5.37	-6.73	-8.17	-9.8	-11.7	-13.84	-15.99	-17.76	-18.7	-18.39	-16.59	-13.24	-8.55	-2.94	3.02	8.65	13.34	16.64	18.37	18.63	17.76	16.19	14.23	12.11	9.94	7.86	6.03	4.68	3.91	3.63
-15.44	-17.6	-19.1	-19.34	-17.89	-14.61	-9.8	-4.07	1.81	7.13	11.42	14.44	16.21	16.82	16.43	15.25	13.49	11.43	9.29	7.32	5.71	4.55	3.85	3.52	3.4	3.3	3.07	2.62	1.94	1.03	-0.06	-1.3	-2.63	-4	-5.37	-6.73	-8.17	-9.8	-11.7	-13.84	-15.99	-17.76	-18.7	-18.39	-16.59	-13.24	-8.55	-2.94	3.02	8.65	13.34	16.64	18.37	18.63	17.76	16.19	14.23	12.11	9.94	7.86	6.03	4.68	3.91	3.63	3.53	3.24	2.51	1.32	-0.11	-1.47	-2.51	-3.2	-3.72	-4.32	-5.2	-6.46	-8.07	-9.99	-12.17	-14.53	-16.92	-19	-20.29	-20.27	-18.56	-15.08	-10.12	-4.28	1.68	7.08	11.43	14.5	16.28	16.96	16.77	15.96	14.72	13.21	11.52	9.75	8.04	6.53	5.34	4.49	3.87	3.27	2.45	1.26	-0.29	-2.03	-3.73	-5.2	-6.38	-7.35	-8.27	-9.29	-10.51	-11.93	-13.5	-15.08	-16.45	-17.28	-17.19	-15.77	-12.81	-8.39	-2.95	2.82
3.53	3.24	2.51	1.32	-0.11	-1.47	-2.51	-3.2	-3.72	-4.32	-5.2	-6.46	-8.07	-9.99	-12.17	-14.53	-16.92	-19	-20.29	-20.27	-18.56	-15.08	-10.12	-4.28	1.68	7.08	11.43	14.5	16.28	16.96	16.77	15.96	14.72	13.21	11.52	9.75	8.04	6.53	5.34	4.49	3.87	3.27	2.45	1.26	-0.29	-2.03	-3.73	-5.2	-6.38	-7.35	-8.27	-9.29	-10.51	-11.93	-13.5	-15.08	-16.45	-17.28	-17.19	-15.77	-12.81	-8.39	-2.95	2.82	8.14	12.4	15.27	16.77	17.12	16.61	15.48	13.87	11.87	9.64	7.42	5.52	4.22	3.65	3.69	4.09	4.5	4.63	4.33	3.61	2.55	1.27	-0.18	-1.77	-3.46	-5.18	-6.83	-8.41	-9.99	-11.76	-13.87	-16.2	-18.33	-19.61	-19.35	-17.15	-13.13	-7.87	-2.24	2.92	7.06	9.93	11.62	12.31	12.22	11.52	10.37	8.9	7.26	5.59	4	2.6	1.5	0.74	0.35	0.24	0.25	0.18	-0.19	-0.97	-2.13	-3.55	-5.06	-6.54
8.14	12.4	15.27	16.77	17.12	16.61	15.48	13.87	11.87	9.64	7.42	5.52	4.22	3.65	3.69	4.09	4.5	4.63	4.33	3.61	2.55	1.27	-0.18	-1.77	-3.46	-5.18	-6.83	-8.41	-9.99	-11.76	-13.87	-16.2	-18.33	-19.61	-19.35	-17.15	-13.13	-7.87	-2.24	2.92	7.06	9.93	11.62	12.31	12.22	11.52	10.37	8.9	7.26	5.59	4	2.6	1.5	0.74	0.35	0.24	0.25	0.18	-0.19	-0.97	-2.13	-3.55	-5.06	-6.54	-7.99	-9.53	-11.31	-13.36	-15.55	-17.56	-18.95	-19.29	-18.28	-15.83	-12.05	-7.26	-1.88	3.56	8.49	12.43	15.04	16.25	16.25	15.41	14.13	12.67	11.15	9.56	7.91	6.31	4.99	4.1	3.67	3.53	3.39	2.98	2.22	1.19	0.09	-0.92	-1.77	-2.56	-3.44	-4.57	-6.07	-8	-10.33	-12.94	-15.52	-17.6	-18.63	-18.13	-15.82	-11.82	-6.58	-0.87	4.54	8.98	12.16	14.09	14.93	14.94	14.28	13.04	11.39	9.5	7.67	6.15
-7.99	-9.53	-11.31	-13.36	-15.55	-17.56	-18.95	-19.29	-18.28	-15.83	-12.05	-7.26	-1.88	3.56	8.49	12.43	15.04	16.25	16.25	15.41	14.13	12.67	11.15	9.56	7.91	6.31	4.99	4.1	3.67	3.53	3.39	2.98	2.22	1.19	0.09	-0.92	-1.77	-2.56	-3.44	-4.57	-6.07	-8	-10.33	-12.94	-15.52	-17.6	-18.63	-18.13	-15.82	-11.82	-6.58	-0.87	4.54	8.98	12.16	14.09	14.93	14.94	14.28	13.04	11.39	9.5	7.67	6.15	5.06	4.37	3.91	3.49	2.98	2.38	1.73	1.06	0.36	-0.44	-1.4	-2.52	-3.7	-4.89	-6.1	-7.45	-9.11	-11.21	-13.72	-16.33	-18.54	-19.76	-19.53	-17.58	-13.97	-9.08	-3.46	2.21	7.35	11.5	14.45	16.16	16.72	16.3	15.04	13.16	10.91	8.59	6.53	4.99	4.05	3.65	3.58	3.59	3.5	3.2	2.67	1.92	0.98	-0.14	-1.4	-2.76	-4.19	-5.64	-7.18	-8.88	-10.85	-13.1	-15.48	-17.59	-18.85	-18.68	-16.66	-12.8
5.06	4.37	3.91	3.49	2.98	2.38	1.73	1.06	0.36	-0.44	-1.4	-2.52	-3.7	-4.89	-6.1	-7.45	-9.11	-11.21	-13.72	-16.33	-18.54	-19.76	-19.53	-17.58	-13.97	-9.08	-3.46	2.21	7.35	11.5	14.45	16.16	16.72	16.3	15.04	13.16	10.91	8.59	6.53	4.99	4.05	3.65	3.58	3.59	3.5	3.2	2.67	1.92	0.98	-0.14	-1.4	-2.76	-4.19	-5.64	-7.18	-8.88	-10.85	-13.1	-15.48	-17.59	-18.85	-18.68	-16.66	-12.8	-7.49	-1.49	4.34	9.28	12.95	15.29	16.48	16.74	16.22	15.05	13.32	11.21	8.99	6.97	5.39	4.38	3.9	3.81	3.9	3.96	3.82	3.42	2.72	1.79	0.7	-0.45	-1.65	-2.93	-4.38	-6.05	-7.95	-10.03	-12.16	-14.2	-15.92	-17.01	-17.11	-15.9	-13.19	-9.04	-3.83	1.89	7.44	12.25	15.86	18.09	18.92	18.52	17.2	15.28	13.07	10.83	8.76	6.98	5.59	4.65	4.12	3.89	3.75	3.45	2.83	1.81	0.5	-0.93
-7.49	-1.49	4.34	9.28	12.95	15.29	16.48	16.74	16.22	15.05	13.32	11.21	8.99	6.97	5.39	4.38	3.9	3.81	3.9	3.96	3.82	3.42	2.72	1.79	0.7	-0.45	-1.65	-2.93	-4.38	-6.05	-7.95	-10.03	-12.16	-14.2	-15.92	-17.01	-17.11	-15.9	-13.19	-9.04	-3.83	1.89	7.44	12.25	15.86	18.09	18.92	18.52	17.2	15.28	13.07	10.83	8.76	6.98	5.59	4.65	4.12	3.89	3.75	3.45	2.83	1.81	0.5	-0.93	-2.26	-3.36	-4.25	-5.08	-6.11	-7.59	-9.63	-12.18	-14.96	-17.57	-19.51	-20.33	-19.63	-17.16	-12.96	-7.36	-1	5.24	10.51	14.21	16.16	16.58	15.96	14.82	13.51	12.16	10.75	9.21	7.54	5.89	4.45	3.4	2.78	2.52	2.39	2.15	1.59	0.61	-0.73	-2.24	-3.73	-5.08	-6.33	-7.66	-9.29	-11.36	-13.83	-16.46	-18.82	-20.48	-21	-20.08	-17.59	-13.61	-8.46	-2.7	3.01	8.05	11.97	14.59	15.98	16.35	15.91	14.84
-2.26	-3.36	-4.25	-5.08	-6.11	-7.59	-9.63	-12.18	-14.96	-17.57	-19.51	-20.33	-19.63	-17.16	-12.96	-7.36	-1	5.24	10.51	14.21	16.16	16.58	15.96	14.82	13.51	12.16	10.75	9.21	7.54	5.89	4.45	3.4	2.78	2.52	2.39	2.15	1.59	0.61	-0.73	-2.24	-3.73	-5.08	-6.33	-7.66	-9.29	-11.36	-13.83	-16.46	-18.82	-20.48	-21	-20.08	-17.59	-13.61	-8.46	-2.7	3.01	8.05	11.97	14.59	15.98	16.35	15.91	14.84	13.32	11.56	9.79	8.24	7.05	6.22	5.66	5.24	4.82	4.3	3.64	2.81	1.85	0.82	-0.22	-1.22	-2.21	-3.27	-4.51	-6.04	-7.92	-10.14	-12.59	-15.04	-17.1	-18.32	-18.22	-16.53	-13.24	-8.63	-3.28	2.14	7.02	10.9	13.56	14.99	15.32	14.78	13.62	12.06	10.28	8.46	6.78	5.42	4.53	4.16	4.2	4.45	4.65	4.58	4.13	3.33	2.25	0.99	-0.38	-1.85	-3.43	-5.1	-6.86	-8.71	-10.65	-12.69	-14.7	-16.45
13.32	11.56	9.79	8.24	7.05	6.22	5.66	5.24	4.82	4.3	3.64	2.81	1.85	0.82	-0.22	-1.22	-2.21	-3.27	-4.51	-6.04	-7.92	-10.14	-12.59	-15.04	-17.1	-18.32	-18.22	-16.53	-13.24	-8.63	-3.28	2.14	7.02	10.9	13.56	14.99	15.32	14.78	13.62	12.06	10.28	8.46	6.78	5.42	4.53	4.16	4.2	4.45	4.65	4.58	4.13	3.33	2.25	0.99	-0.38	-1.85	-3.43	-5.1	-6.86	-8.71	-10.65	-12.69	-14.7	-16.45	-17.55	-17.54	-16.09	-13.09	-8.76	-3.6	1.75	6.64	10.57	13.28	14.79	15.28	15.01	14.22	13.07	11.6	9.9	8.11	6.45	5.13	4.28	3.88	3.75	3.66	3.44	2.96	2.24	1.31	0.27	-0.8	-1.84	-2.86	-3.95	-5.29	-7.02	-9.23	-11.83	-14.51	-16.81	-18.25	-18.41	-17.04	-14.17	-10.03	-5.09	0.09	4.99	9.18	12.4	14.54	15.61	15.69	14.92	13.49	11.6	9.51	7.47	5.71	4.42	3.68	3.43	3.48	3.59	3.52
-17.55	-17.54	-16.09	-13.09	-8.76	-3.6	1.75	6.64	10.57	13.28	14.79	15.28	15.01	14.22	13.07	11.6	9.9	8.11	6.45	5.13	4.28	3.88	3.75	3.66	3.44	2.96	2.24	1.31	0.27	-0.8	-1.84	-2.86	-3.95	-5.29	-7.02	-9.23	-11.83	-14.51	-16.81	-18.25	-18.41	-17.04	-14.17	-10.03	-5.09	0.09	4.99	9.18	12.4	14.54	15.61	15.69	14.92	13.49	11.6	9.51	7.47	5.71	4.42	3.68	3.43	3.48	3.59	3.52	3.17	2.55	1.79	0.99	0.18	-0.7	-1.73	-2.92	-4.24	-5.65	-7.18	-8.97	-11.1	-13.47	-15.71	-17.22	-17.4	-15.87	-12.63	-8.08	-2.84	2.43	7.22	11.17	14.11	15.96	16.66	16.25	14.89	12.86	10.57	8.42	6.68	5.47	4.7	4.23	3.9	3.63	3.37	3.02	2.47	1.58	0.31	-1.24	-2.83	-4.28	-5.52	-6.65	-7.92	-9.57	-11.7	-14.23	-16.83	-19.03	-20.31	-20.18	-18.36	-14.83	-9.91	-4.22	1.53	6.63	10.62	13.31
3.17	2.55	1.79	0.99	0.18	-0.7	-1.73	-2.92	-4.24	-5.65	-7.18	-8.97	-11.1	-13.47	-15.71	-17.22	-17.4	-15.87	-12.63	-8.08	-2.84	2.43	7.22	11.17	14.11	15.96	16.66	16.25	14.89	12.86	10.57	8.42	6.68	5.47	4.7	4.23	3.9	3.63	3.37	3.02	2.47	1.58	0.31	-1.24	-2.83	-4.28	-5.52	-6.65	-7.92	-9.57	-11.7	-14.23	-16.83	-19.03	-20.31	-20.18	-18.36	-14.83	-9.91	-4.22	1.53	6.63	10.62	13.31	14.76	15.15	14.7	13.6	12	10.1	8.11	6.28	4.83	3.88	3.45	3.38	3.49	3.55	3.42	3.04	2.46	1.73	0.92	0.02	-1.02	-2.22	-3.62	-5.16	-6.81	-8.58	-10.56	-12.84	-15.37	-17.85	-19.68	-20.16	-18.72	-15.23	-10.1	-4.17	1.58	6.4	9.91	12.16	13.37	13.82	13.59	12.69	11.11	8.97	6.58	4.33	2.56	1.42	0.87	0.67	0.52	0.17	-0.49	-1.48	-2.7	-4.01	-5.32	-6.57	-7.8	-9.08	-10.51	-12.16
14.76	15.15	14.7	13.6	12	10.1	8.11	6.28	4.83	3.88	3.45	3.38	3.49	3.55	3.42	3.04	2.46	1.73	0.92	0.02	-1.02	-2.22	-3.62	-5.16	-6.81	-8.58	-10.56	-12.84	-15.37	-17.85	-19.68	-20.16	-18.72	-15.23	-10.1	-4.17	1.58	6.4	9.91	12.16	13.37	13.82	13.59	12.69	11.11	8.97	6.58	4.33	2.56	1.42	0.87	0.67	0.52	0.17	-0.49	-1.48	-2.7	-4.01	-5.32	-6.57	-7.8	-9.08	-10.51	-12.16	-14.08	-16.32	-18.91	-21.79	-24.75	-27.4	-29.2	-29.59	-28.27	-25.29	-21.14	-16.56	-12.3	-8.87	-6.37	-4.63	-3.36	-2.33	-1.41	-0.57	0.27	1.34	2.91	5.24	8.32	11.85	15.33	18.27	20.39	21.65	22.24	22.31	21.95	21.1	19.67	17.69	15.32	12.78	10.21	7.66	5.04	2.23	-0.76	-3.77	-6.44	-8.35	-9.12	-8.44	-6.23	-2.65	1.87	6.71	11.16	14.67	16.96	18.04	18.17	17.59	16.48	14.85	12.69	10.08	7.28	4.76
-14.08	-16.32	-18.91	-21.79	-24.75	-27.4	-29.2	-29.59	-28.27	-25.29	-21.14	-16.56	-12.3	-8.87	-6.37	-4.63	-3.36	-2.33	-1.41	-0.57	0.27	1.34	2.91	5.24	8.32	11.85	15.33	18.27	20.39	21.65	22.24	22.31	21.95	21.1	19.67	17.69	15.32	12.78	10.21	7.66	5.04	2.23	-0.76	-3.77	-6.44	-8.35	-9.12	-8.44	-6.23	-2.65	1.87	6.71	11.16	14.67	16.96	18.04	18.17	17.59	16.48	14.85	12.69	10.08	7.28	4.76	2.93	2.02	1.91	2.22	2.45	2.23	1.42	0.14	-1.35	-2.79	-4	-4.99	-5.84	-6.7	-7.71	-8.96	-10.49	-12.28	-14.18	-15.94	-17.17	-17.38	-16.21	-13.47	-9.39	-4.54	0.34	4.55	7.69	9.7	10.81	11.3	11.42	11.26	10.83	10.13	9.2	8.16	7.1	6.13	5.29	4.64	4.15	3.73	3.22	2.45	1.38	0.1	-1.16	-2.2	-3.01	-3.76	-4.77	-6.3	-8.4	-10.92	-13.5	-15.77	-17.42	-18.15	-17.7	-15.86	-12.55	-7.93
2.93	2.02	1.91	2.22	2.45	2.23	1.42	0.14	-1.35	-2.79	-4	-4.99	-5.84	-6.7	-7.71	-8.96	-10.49	-12.28	-14.18	-15.94	-17.17	-17.38	-16.21	-13.47	-9.39	-4.54	0.34	4.55	7.69	9.7	10.81	11.3	11.42	11.26	10.83	10.13	9.2	8.16	7.1	6.13	5.29	4.64	4.15	3.73	3.22	2.45	1.38	0.1	-1.16	-2.2	-3.01	-3.76	-4.77	-6.3	-8.4	-10.92	-13.5	-15.77	-17.42	-18.15	-17.7	-15.86	-12.55	-7.93	-2.46	3.18	8.31	12.4	15.22	16.84	17.47	17.38	16.74	15.66	14.2	12.5	10.77	9.3	8.32	7.89	7.84	7.87	7.65	7.03	6.05	4.89	3.76	2.73	1.71	0.51	-1.04	-3.01	-5.34	-7.89	-10.54	-13.15	-15.51	-17.27	-18.02	-17.35	-15.09	-11.37	-6.66	-1.58	3.25	7.36	10.48	12.49	13.42	13.36	12.5	11.13	9.55	7.99	6.62	5.47	4.53	3.8	3.29	3.01	2.91	2.82	2.58	2.03	1.18	0.17	-0.81	-1.6
-2.46	3.18	8.31	12.4	15.22	16.84	17.47	17.38	16.74	15.66	14.2	12.5	10.77	9.3	8.32	7.89	7.84	7.87	7.65	7.03	6.05	4.89	3.76	2.73	1.71	0.51	-1.04	-3.01	-5.34	-7.89	-10.54	-13.15	-15.51	-17.27	-18.02	-17.35	-15.09	-11.37	-6.66	-1.58	3.25	7.36	10.48	12.49	13.42	13.36	12.5	11.13	9.55	7.99	6.62	5.47	4.53	3.8	3.29	3.01	2.91	2.82	2.58	2.03	1.18	0.17	-0.81	-1.6	-2.23	-2.88	-3.79	-5.14	-6.97	-9.15	-11.46	-13.66	-15.47	-16.6	-16.72	-15.53	-12.87	-8.89	-4.07	0.88	5.28	8.67	10.94	12.18	12.58	12.26	11.27	9.69	7.71	5.65	3.83	2.49	1.69	1.36	1.37	1.61	1.99	2.4	2.68	2.66	2.27	1.54	0.65	-0.21	-0.92	-1.56	-2.35	-3.53	-5.28	-7.56	-10.19	-12.87	-15.24	-16.94	-17.66	-17.11	-15.14	-11.75	-7.21	-2.01	3.17	7.61	10.81	12.58	13.08	12.71	11.88	10.89
-2.23	-2.88	-3.79	-5.14	-6.97	-9.15	-11.46	-13.66	-15.47	-16.6	-16.72	-15.53	-12.87	-8.89	-4.07	0.88	5.28	8.67	10.94	12.18	12.58	12.26	11.27	9.69	7.71	5.65	3.83	2.49	1.69	1.36	1.37	1.61	1.99	2.4	2.68	2.66	2.27	1.54	0.65	-0.21	-0.92	-1.56	-2.35	-3.53	-5.28	-7.56	-10.19	-12.87	-15.24	-16.94	-17.66	-17.11	-15.14	-11.75	-7.21	-2.01	3.17	7.61	10.81	12.58	13.08	12.71	11.88	10.89	9.85	8.77	7.65	6.6	5.78	5.26	4.96	4.62	3.89	2.6	0.79	-1.24	-3.14	-4.69	-5.9	-6.99	-8.25	-9.83	-11.73	-13.79	-15.85	-17.74	-19.29	-20.26	-20.29	-19.02	-16.24	-12.04	-6.92	-1.57	3.25	7.04	9.55	10.8	10.98	10.33	9.09	7.58	6.14	5.12	4.76	5.14	6.15	7.54	9	10.32	11.33	12.01	12.35	12.39	12.18	11.78	11.22	10.5	9.53	8.2	6.39	4.05	1.28	-1.69	-4.55	-6.92	-8.47	-8.92
9.85	8.77	7.65	6.6	5.78	5.26	4.96	4.62	3.89	2.6	0.79	-1.24	-3.14	-4.69	-5.9	-6.99	-8.25	-9.83	-11.73	-13.79	-15.85	-17.74	-19.29	-20.26	-20.29	-19.02	-16.24	-12.04	-6.92	-1.57	3.25	7.04	9.55	10.8	10.98	10.33	9.09	7.58	6.14	5.12	4.76	5.14	6.15	7.54	9	10.32	11.33	12.01	12.35	12.39	12.18	11.78	11.22	10.5	9.53	8.2	6.39	4.05	1.28	-1.69	-4.55	-6.92	-8.47	-8.92	-8.1	-6.02	-2.91	0.76	4.43	7.54	9.69	10.74	10.76	9.95	8.51	6.62	4.44	2.15	0.02	-1.65	-2.64	-2.91	-2.69	-2.35	-2.29	-2.72	-3.61	-4.77	-5.92	-6.94	-7.82	-8.71	-9.79	-11.18	-12.89	-14.81	-16.7	-18.22	-18.96	-18.52	-16.67	-13.42	-9.11	-4.36	0.15	3.86	6.46	7.97	8.59	8.53	7.96	6.96	5.61	4.07	2.61	1.48	0.85	0.68	0.73	0.73	0.5	0.03	-0.52	-0.94	-1.08	-0.97	-0.76	-0.66
-8.1	-6.02	-2.91	0.76	4.43	7.54	9.69	10.74	10.76	9.95	8.51	6.62	4.44	2.15	0.02	-1.65	-2.64	-2.91	-2.69	-2.35	-2.29	-2.72	-3.61	-4.77	-5.92	-6.94	-7.82	-8.71	-9.79	-11.18	-12.89	-14.81	-16.7	-18.22	-18.96	-18.52	-16.67	-13.42	-9.11	-4.36	0.15	3.86	6.46	7.97	8.59	8.53	7.96	6.96	5.61	4.07	2.61	1.48	0.85	0.68	0.73	0.73	0.5	0.03	-0.52	-0.94	-1.08	-0.97	-0.76	-0.66	-0.91	-1.65	-2.94	-4.67	-6.61	-8.37	-9.52	-9.59	-8.3	-5.62	-1.82	2.57	6.91	10.58	13.22	14.71	15.19	14.84	13.82	12.17	9.91	7.14	4.15	1.35	-0.87	-2.33	-3.16	-3.68	-4.24	-4.98	-5.8	-6.5	-6.94	-7.21	-7.54	-8.22	-9.34	-10.8	-12.32	-13.59	-14.42	-14.65	-14.2	-12.92	-10.62	-7.24	-2.9	1.96	6.7	10.61	13.16	14.14	13.69	12.22	10.31	8.48	7.14	6.5	6.56	7.11	7.76	8.1	7.79	6.72
-0.91	-1.65	-2.94	-4.67	-6.61	-8.37	-9.52	-9.59	-8.3	-5.62	-1.82	2.57	6.91	10.58	13.22	14.71	15.19	14.84	13.82	12.17	9.91	7.14	4.15	1.35	-0.87	-2.33	-3.16	-3.68	-4.24	-4.98	-5.8	-6.5	-6.94	-7.21	-7.54	-8.22	-9.34	-10.8	-12.32	-13.59	-14.42	-14.65	-14.2	-12.92	-10.62	-7.24	-2.9	1.96	6.7	10.61	13.16	14.14	13.69	12.22	10.31	8.48	7.14	6.5	6.56	7.11	7.76	8.1	7.79	6.72	5.12	3.41	2.08	1.43	1.46	1.86	2.1	1.69	0.3	-2.12	-5.35	-8.91	-12.15	-14.36	-14.94	-13.56	-10.28	-5.61	-0.31	4.76	8.94	11.81	13.26	13.37	12.35	10.46	8.04	5.42	2.96	0.91	-0.6	-1.62	-2.3	-2.88	-3.48	-4.12	-4.63	-4.81	-4.58	-4.01	-3.39	-3.12	-3.54	-4.84	-6.96	-9.69	-12.65	-15.38	-17.34	-18.03	-17.04	-14.28	-10.07	-5.01	0.1	4.62	8.17	10.66	12.21	12.97	13.02	12.4	11.17	9.43
5.12	3.41	2.08	1.43	1.46	1.86	2.1	1.69	0.3	-2.12	-5.35	-8.91	-12.15	-14.36	-14.94	-13.56	-10.28	-5.61	-0.31	4.76	8.94	11.81	13.26	13.37	12.35	10.46	8.04	5.42	2.96	0.91	-0.6	-1.62	-2.3	-2.88	-3.48	-4.12	-4.63	-4.81	-4.58	-4.01	-3.39	-3.12	-3.54	-4.84	-6.96	-9.69	-12.65	-15.38	-17.34	-18.03	-17.04	-14.28	-10.07	-5.01	0.1	4.62	8.17	10.66	12.21	12.97	13.02	12.4	11.17	9.43	7.38	5.24	3.24	1.58	0.4	-0.23	-0.37	-0.17	0.08	0.1	-0.31	-1.17	-2.37	-3.68	-4.92	-5.99	-6.99	-8.1	-9.49	-11.2	-13.08	-14.72	-15.63	-15.33	-13.55	-10.31	-5.9	-0.82	4.37	9.17	13.21	16.25	18.15	18.88	18.49	17.15	15.18	12.96	10.89	9.27	8.17	7.54	7.18	6.84	6.36	5.64	4.7	3.64	2.6	1.68	0.88	0.12	-0.8	-2.08	-3.85	-6.09	-8.6	-11.02	-12.93	-13.94	-13.74	-12.21	-9.41	-5.58
7.38	5.24	3.24	1.58	0.4	-0.23	-0.37	-0.17	0.08	0.1	-0.31	-1.17	-2.37	-3.68	-4.92	-5.99	-6.99	-8.1	-9.49	-11.2	-13.08	-14.72	-15.63	-15.33	-13.55	-10.31	-5.9	-0.82	4.37	9.17	13.21	16.25	18.15	18.88	18.49	17.15	15.18	12.96	10.89	9.27	8.17	7.54	7.18	6.84	6.36	5.64	4.7	3.64	2.6	1.68	0.88	0.12	-0.8	-2.08	-3.85	-6.09	-8.6	-11.02	-12.93	-13.94	-13.74	-12.21	-9.41	-5.58	-1.16	3.31	7.26	10.27	12.13	12.86	12.65	11.74	10.32	8.54	6.51	4.44	2.58	1.18	0.37	0.09	0.1	0.12	-0.07	-0.52	-1.11	-1.71	-2.25	-2.8	-3.55	-4.73	-6.46	-8.74	-11.35	-13.93	-16.04	-17.21	-17.09	-15.5	-12.5	-8.4	-3.69	1.02	5.18	8.44	10.66	11.91	12.3	11.96	10.93	9.31	7.26	5.06	3.05	1.52	0.55	0.03	-0.26	-0.57	-0.98	-1.49	-2.02	-2.52	-3.03	-3.61	-4.38	-5.46	-6.92	-8.82
-1.16	3.31	7.26	10.27	12.13	12.86	12.65	11.74	10.32	8.54	6.51	4.44	2.58	1.18	0.37	0.09	0.1	0.12	-0.07	-0.52	-1.11	-1.71	-2.25	-2.8	-3.55	-4.73	-6.46	-8.74	-11.35	-13.93	-16.04	-17.21	-17.09	-15.5	-12.5	-8.4	-3.69	1.02	5.18	8.44	10.66	11.91	12.3	11.96	10.93	9.31	7.26	5.06	3.05	1.52	0.55	0.03	-0.26	-0.57	-0.98	-1.49	-2.02	-2.52	-3.03	-3.61	-4.38	-5.46	-6.92	-8.82	-11.08	-13.51	-15.7	-17.16	-17.45	-16.24	-13.5	-9.48	-4.63	0.5	5.35	9.44	12.43	14.13	14.57	13.94	12.53	10.7	8.78	6.97	5.41	4.15	3.18	2.48	1.98	1.61	1.28	0.93	0.52	0.04	-0.46	-0.97	-1.51	-2.19	-3.16	-4.56	-6.48	-8.87	-11.52	-14.03	-15.89	-16.55	-15.64	-13.07	-9.1	-4.31	0.62	5.09	8.7	11.31	12.91	13.57	13.34	12.32	10.65	8.56	6.35	4.32	2.7	1.58	0.93	0.64	0.53	0.43
-11.08	-13.51	-15.7	-17.16	-17.45	-16.24	-13.5	-9.48	-4.63	0.5	5.35	9.44	12.43	14.13	14.57	13.94	12.53	10.7	8.78	6.97	5.41	4.15	3.18	2.48	1.98	1.61	1.28	0.93	0.52	0.04	-0.46	-0.97	-1.51	-2.19	-3.16	-4.56	-6.48	-8.87	-11.52	-14.03	-15.89	-16.55	-15.64	-13.07	-9.1	-4.31	0.62	5.09	8.7	11.31	12.91	13.57	13.34	12.32	10.65	8.56	6.35	4.32	2.7	1.58	0.93	0.64	0.53	0.43	0.23	-0.11	-0.57	-1.08	-1.61	-2.19	-3.01	-4.24	-6.01	-8.31	-10.94	-13.56	-15.77	-17.17	-17.46	-16.45	-14.09	-10.55	-6.14	-1.34	3.31	7.35	10.5	12.67	13.92	14.32	13.93	12.76	10.87	8.41	5.68	3.11	1.09	-0.09	-0.39	-0.02	0.64	1.22	1.44	1.23	0.65	-0.11	-0.96	-1.91	-3.06	-4.51	-6.31	-8.39	-10.62	-12.84	-14.84	-16.35	-17	-16.44	-14.46	-11.12	-6.8	-2.06	2.51	6.54	9.83	12.39	14.16	15.07
0.23	-0.11	-0.57	-1.08	-1.61	-2.19	-3.01	-4.24	-6.01	-8.31	-10.94	-13.56	-15.77	-17.17	-17.46	-16.45	-14.09	-10.55	-6.14	-1.34	3.31	7.35	10.5	12.67	13.92	14.32	13.93	12.76	10.87	8.41	5.68	3.11	1.09	-0.09	-0.39	-0.02	0.64	1.22	1.44	1.23	0.65	-0.11	-0.96	-1.91	-3.06	-4.51	-6.31	-8.39	-10.62	-12.84	-14.84	-16.35	-17	-16.44	-14.46	-11.12	-6.8	-2.06	2.51	6.54	9.83	12.39	14.16	15.07	15	13.91	12	9.67	7.43	5.65	4.51	3.89	3.53	3.16	2.63	1.96	1.27	0.7	0.34	0.15	-0.01	-0.29	-0.88	-1.96	-3.68	-6.07	-9.01	-12.1	-14.81	-16.48	-16.62	-15	-11.77	-7.36	-2.41	2.49	6.84	10.28	12.65	13.9	14.11	13.41	11.94	9.87	7.45	4.98	2.83	1.34	0.64	0.62	0.9	1.06	0.79	0.07	-0.91	-1.85	-2.58	-3.13	-3.73	-4.59	-5.86	-7.53	-9.54	-11.81	-14.23	-16.61	-18.56	-19.51
15	13.91	12	9.67	7.43	5.65	4.51	3.89	3.53	3.16	2.63	1.96	1.27	0.7	0.34	0.15	-0.01	-0.29	-0.88	-1.96	-3.68	-6.07	-9.01	-12.1	-14.81	-16.48	-16.62	-15	-11.77	-7.36	-2.41	2.49	6.84	10.28	12.65	13.9	14.11	13.41	11.94	9.87	7.45	4.98	2.83	1.34	0.64	0.62	0.9	1.06	0.79	0.07	-0.91	-1.85	-2.58	-3.13	-3.73	-4.59	-5.86	-7.53	-9.54	-11.81	-14.23	-16.61	-18.56	-19.51	-18.88	-16.32	-11.9	-6.17	-0.03	5.6	10.07	13.09	14.74	15.33	15.14	14.31	12.92	11.05	8.87	6.71	4.88	3.63	2.99	2.75	2.67	2.52	2.24	1.91	1.63	1.46	1.29	0.95	0.23	-0.98	-2.72	-4.97	-7.65	-10.63	-13.69	-16.46	-18.41	-19.03	-17.91	-14.94	-10.39	-4.82	1.04	6.47	10.97	14.31	16.5	17.63	17.86	17.3	16.05	14.24	12.1	9.91	8.03	6.71	6.09	6.07	6.37	6.66	6.63	6.16	5.28	4.19
-18.88	-16.32	-11.9	-6.17	-0.03	5.6	10.07	13.09	14.74	15.33	15.14	14.31	12.92	11.05	8.87	6.71	4.88	3.63	2.99	2.75	2.67	2.52	2.24	1.91	1.63	1.46	1.29	0.95	0.23	-0.98	-2.72	-4.97	-7.65	-10.63	-13.69	-16.46	-18.41	-19.03	-17.91	-14.94	-10.39	-4.82	1.04	6.47	10.97	14.31	16.5	17.63	17.86	17.3	16.05	14.24	12.1	9.91	8.03	6.71	6.09	6.07	6.37	6.66	6.63	6.16	5.28	4.19	3.05	1.92	0.76	-0.61	-2.29	-4.33	-6.65	-9.07	-11.38	-13.32	-14.64	-15	-14.11	-11.77	-8.02	-3.21	2.06	7.12	11.38	14.49	16.39	17.18	17.05	16.14	14.58	12.53	10.25	8.08	6.35	5.28	4.9	5.05	5.46	5.83	5.95	5.7	5.07	4.13	2.97	1.67	0.3	-1.11	-2.56	-4.08	-5.74	-7.58	-9.63	-11.84	-14	-15.77	-16.69	-16.31	-14.37	-10.89	-6.27	-1.1	3.93	8.26	11.57	13.79	15.05	15.52	15.34	14.61
3.05	1.92	0.76	-0.61	-2.29	-4.33	-6.65	-9.07	-11.38	-13.32	-14.64	-15	-14.11	-11.77	-8.02	-3.21	2.06	7.12	11.38	14.49	16.39	17.18	17.05	16.14	14.58	12.53	10.25	8.08	6.35	5.28	4.9	5.05	5.46	5.83	5.95	5.7	5.07	4.13	2.97	1.67	0.3	-1.11	-2.56	-4.08	-5.74	-7.58	-9.63	-11.84	-14	-15.77	-16.69	-16.31	-14.37	-10.89	-6.27	-1.1	3.93	8.26	11.57	13.79	15.05	15.52	15.34	14.61	13.42	11.87	10.11	8.35	6.77	5.5	4.61	4.04	3.74	3.58	3.46	3.27	2.95	2.47	1.8	0.94	-0.13	-1.41	-2.9	-4.55	-6.28	-8.04	-9.78	-11.53	-13.24	-14.84	-16.07	-16.55	-15.86	-13.7	-10.11	-5.43	-0.33	4.49	8.43	11.22	12.84	13.48	13.35	12.62	11.42	9.87	8.2	6.66	5.44	4.65	4.2	3.94	3.71	3.48	3.24	3.01	2.74	2.32	1.64	0.68	-0.49	-1.69	-2.8	-3.83	-4.86	-6.03	-7.41	-9.01
13.42	11.87	10.11	8.35	6.77	5.5	4.61	4.04	3.74	3.58	3.46	3.27	2.95	2.47	1.8	0.94	-0.13	-1.41	-2.9	-4.55	-6.28	-8.04	-9.78	-11.53	-13.24	-14.84	-16.07	-16.55	-15.86	-13.7	-10.11	-5.43	-0.33	4.49	8.43	11.22	12.84	13.48	13.35	12.62	11.42	9.87	8.2	6.66	5.44	4.65	4.2	3.94	3.71	3.48	3.24	3.01	2.74	2.32	1.64	0.68	-0.49	-1.69	-2.8	-3.83	-4.86	-6.03	-7.41	-9.01	-10.76	-12.59	-14.44	-16.14	-17.42	-17.88	-17.11	-14.87	-11.2	-6.52	-1.47	3.29	7.22	10.05	11.73	12.35	12.11	11.21	9.84	8.24	6.63	5.2	4.05	3.16	2.41	1.7	0.96	0.27	-0.28	-0.61	-0.76	-0.88	-1.19	-1.85	-2.91	-4.31	-5.98	-7.82	-9.81	-11.94	-14.18	-16.49	-18.82	-21.16	-23.47	-25.63	-27.37	-28.31	-28.03	-26.31	-23.2	-19.11	-14.69	-10.64	-7.52	-5.64	-5	-5.37	-6.36	-7.5	-8.33	-8.44	-7.56	-5.59
-10.76	-12.59	-14.44	-16.14	-17.42	-17.88	-17.11	-14.87	-11.2	-6.52	-1.47	3.29	7.22	10.05	11.73	12.35	12.11	11.21	9.84	8.24	6.63	5.2	4.05	3.16	2.41	1.7	0.96	0.27	-0.28	-0.61	-0.76	-0.88	-1.19	-1.85	-2.91	-4.31	-5.98	-7.82	-9.81	-11.94	-14.18	-16.49	-18.82	-21.16	-23.47	-25.63	-27.37	-28.31	-28.03	-26.31	-23.2	-19.11	-14.69	-10.64	-7.52	-5.64	-5	-5.37	-6.36	-7.5	-8.33	-8.44	-7.56	-5.59	-2.62	1.07	5.13	9.21	13.03	16.4	19.2	21.33	22.7	23.28	23.11	22.27	20.9	19.11	16.94	14.44	11.67	8.68	5.58	2.48	-0.51	-3.2	-5.37	-6.67	-6.76	-5.39	-2.61	1.22	5.52	9.6	12.94	15.24	16.47	16.78	16.35	15.31	13.75	11.76	9.51	7.24	5.24	3.73	2.76	2.26	2.02	1.82	1.55	1.15	0.63	0	-0.74	-1.63	-2.67	-3.79	-4.97	-6.16	-7.44	-8.93	-10.73	-12.86	-15.14	-17.22	-18.63	-18.9
-2.62	1.07	5.13	9.21	13.03	16.4	19.2	21.33	22.7	23.28	23.11	22.27	20.9	19.11	16.94	14.44	11.67	8.68	5.58	2.48	-0.51	-3.2	-5.37	-6.67	-6.76	-5.39	-2.61	1.22	5.52	9.6	12.94	15.24	16.47	16.78	16.35	15.31	13.75	11.76	9.51	7.24	5.24	3.73	2.76	2.26	2.02	1.82	1.55	1.15	0.63	0	-0.74	-1.63	-2.67	-3.79	-4.97	-6.16	-7.44	-8.93	-10.73	-12.86	-15.14	-17.22	-18.63	-18.9	-17.71	-14.97	-10.87	-5.87	-0.57	4.43	8.64	11.81	13.91	15.07	15.47	15.22	14.39	13.05	11.31	9.36	7.46	5.87	4.74	4.11	3.9	3.95	4.03	3.95	3.58	2.85	1.74	0.33	-1.26	-2.9	-4.47	-5.86	-7.1	-8.26	-9.54	-11.12	-13.1	-15.36	-17.47	-18.86	-18.95	-17.41	-14.23	-9.82	-4.75	0.37	5.06	9.03	12.07	14.09	15.03	14.91	13.89	12.23	10.25	8.29	6.64	5.45	4.81	4.66	4.86	5.23	5.53	5.6
-17.71	-14.97	-10.87	-5.87	-0.57	4.43	8.64	11.81	13.91	15.07	15.47	15.22	14.39	13.05	11.31	9.36	7.46	5.87	4.74	4.11	3.9	3.95	4.03	3.95	3.58	2.85	1.74	0.33	-1.26	-2.9	-4.47	-5.86	-7.1	-8.26	-9.54	-11.12	-13.1	-15.36	-17.47	-18.86	-18.95	-17.41	-14.23	-9.82	-4.75	0.37	5.06	9.03	12.07	14.09	15.03	14.91	13.89	12.23	10.25	8.29	6.64	5.45	4.81	4.66	4.86	5.23	5.53	5.6	5.33	4.7	3.76	2.53	1.09	-0.54	-2.28	-4.01	-5.59	-6.94	-8.09	-9.22	-10.57	-12.33	-14.51	-16.87	-18.89	-19.99	-19.67	-17.68	-14.1	-9.3	-3.82	1.7	6.69	10.66	13.31	14.55	14.53	13.56	12.04	10.31	8.65	7.15	5.88	4.84	4.11	3.74	3.73	3.96	4.2	4.2	3.76	2.86	1.65	0.35	-0.81	-1.79	-2.64	-3.57	-4.72	-6.17	-7.87	-9.7	-11.57	-13.42	-15.2	-16.72	-17.59	-17.31	-15.46	-11.91	-6.95	-1.3
5.33	4.7	3.76	2.53	1.09	-0.54	-2.28	-4.01	-5.59	-6.94	-8.09	-9.22	-10.57	-12.33	-14.51	-16.87	-18.89	-19.99	-19.67	-17.68	-14.1	-9.3	-3.82	1.7	6.69	10.66	13.31	14.55	14.53	13.56	12.04	10.31	8.65	7.15	5.88	4.84	4.11	3.74	3.73	3.96	4.2	4.2	3.76	2.86	1.65	0.35	-0.81	-1.79	-2.64	-3.57	-4.72	-6.17	-7.87	-9.7	-11.57	-13.42	-15.2	-16.72	-17.59	-17.31	-15.46	-11.91	-6.95	-1.3	4.22	8.92	12.44	14.81	16.21	16.88	16.91	16.24	14.87	12.89	10.62	8.45	6.74	5.63	5.07	4.85	4.74	4.58	4.26	3.75	3.04	2.12	1.01	-0.25	-1.64	-3.15	-4.85	-6.81	-9.12	-11.79	-14.71	-17.68	-20.3	-22.07	-22.46	-21.04	-17.65	-12.54	-6.31	0.21	6.16	10.94	14.23	16.04	16.54	16.03	14.81	13.17	11.38	9.64	8.12	6.9	5.98	5.28	4.67	4.03	3.25	2.35	1.36	0.37	-0.53	-1.38	-2.27	-3.35
4.22	8.92	12.44	14.81	16.21	16.88	16.91	16.24	14.87	12.89	10.62	8.45	6.74	5.63	5.07	4.85	4.74	4.58	4.26	3.75	3.04	2.12	1.01	-0.25	-1.64	-3.15	-4.85	-6.81	-9.12	-11.79	-14.71	-17.68	-20.3	-22.07	-22.46	-21.04	-17.65	-12.54	-6.31	0.21	6.16	10.94	14.23	16.04	16.54	16.03	14.81	13.17	11.38	9.64	8.12	6.9	5.98	5.28	4.67	4.03	3.25	2.35	1.36	0.37	-0.53	-1.38	-2.27	-3.35	-4.8	-6.73	-9.18	-12.08	-15.26	-18.38	-21.02	-22.67	-22.88	-21.41	-18.3	-13.85	-8.6	-3.12	2.08	6.63	10.32	13.03	14.7	15.32	14.94	13.74	12.03	10.16	8.43	7.01	5.94	5.14	4.54	4.08	3.73	3.44	3.06	2.46	1.55	0.39	-0.84	-1.94	-2.84	-3.7	-4.8	-6.45	-8.79	-11.71	-14.8	-17.53	-19.35	-19.83	-18.71	-15.98	-11.87	-6.79	-1.33	3.93	8.52	12.12	14.62	16	16.34	15.73	14.34	12.44	10.4	8.58
-4.8	-6.73	-9.18	-12.08	-15.26	-18.38	-21.02	-22.67	-22.88	-21.41	-18.3	-13.85	-8.6	-3.12	2.08	6.63	10.32	13.03	14.7	15.32	14.94	13.74	12.03	10.16	8.43	7.01	5.94	5.14	4.54	4.08	3.73	3.44	3.06	2.46	1.55	0.39	-0.84	-1.94	-2.84	-3.7	-4.8	-6.45	-8.79	-11.71	-14.8	-17.53	-19.35	-19.83	-18.71	-15.98	-11.87	-6.79	-1.33	3.93	8.52	12.12	14.62	16	16.34	15.73	14.34	12.44	10.4	8.58	7.23	6.39	5.95	5.76	5.68	5.64	5.62	5.55	5.32	4.77	3.85	2.57	1.04	-0.62	-2.35	-4.15	-6.08	-8.17	-10.43	-12.78	-14.99	-16.72	-17.53	-16.98	-14.81	-11.01	-5.93	-0.16	5.56	10.55	14.3	16.6	17.5	17.28	16.33	15.01	13.59	12.2	10.89	9.69	8.69	8.02	7.75	7.84	8.13	8.35	8.29	7.79	6.84	5.52	3.94	2.23	0.49	-1.2	-2.82	-4.36	-5.9	-7.55	-9.44	-11.6	-13.91	-16	-17.35	-17.39
7.23	6.39	5.95	5.76	5.68	5.64	5.62	5.55	5.32	4.77	3.85	2.57	1.04	-0.62	-2.35	-4.15	-6.08	-8.17	-10.43	-12.78	-14.99	-16.72	-17.53	-16.98	-14.81	-11.01	-5.93	-0.16	5.56	10.55	14.3	16.6	17.5	17.28	16.33	15.01	13.59	12.2	10.89	9.69	8.69	8.02	7.75	7.84	8.13	8.35	8.29	7.79	6.84	5.52	3.94	2.23	0.49	-1.2	-2.82	-4.36	-5.9	-7.55	-9.44	-11.6	-13.91	-16	-17.35	-17.39	-15.75	-12.43	-7.76	-2.41	2.95	7.73	11.59	14.33	15.9	16.29	15.6	14.02	11.93	9.74	7.82	6.39	5.5	5.05	4.92	4.96	5.08	5.16	5.08	4.72	3.99	2.89	1.52	-0.01	-1.58	-3.09	-4.46	-5.68	-6.81	-8.03	-9.53	-11.48	-13.85	-16.34	-18.39	-19.33	-18.57	-15.89	-11.54	-6.12	-0.46	4.68	8.78	11.67	13.39	14.1	13.99	13.2	11.89	10.23	8.44	6.74	5.3	4.23	3.58	3.33	3.43	3.75	4.11	4.28
-15.75	-12.43	-7.76	-2.41	2.95	7.73	11.59	14.33	15.9	16.29	15.6	14.02	11.93	9.74	7.82	6.39	5.5	5.05	4.92	4.96	5.08	5.16	5.08	4.72	3.99	2.89	1.52	-0.01	-1.58	-3.09	-4.46	-5.68	-6.81	-8.03	-9.53	-11.48	-13.85	-16.34	-18.39	-19.33	-18.57	-15.89	-11.54	-6.12	-0.46	4.68	8.78	11.67	13.39	14.1	13.99	13.2	11.89	10.23	8.44	6.74	5.3	4.23	3.58	3.33	3.43	3.75	4.11	4.28	4.05	3.33	2.19	0.82	-0.61	-1.95	-3.2	-4.42	-5.69	-7.06	-8.59	-10.32	-12.24	-14.22	-15.94	-16.94	-16.7	-14.86	-11.4	-6.7	-1.43	3.61	7.76	10.68	12.33	12.88	12.55	11.5	9.84	7.69	5.29	3.03	1.34	0.51	0.57	1.26	2.19	2.99	3.48	3.64	3.51	3.12	2.43	1.37	-0.02	-1.64	-3.32	-4.94	-6.51	-8.16	-10.01	-12.1	-14.23	-15.99	-16.87	-16.42	-14.42	-10.96	-6.47	-1.51	3.3	7.5	10.79	13.02
4.05	3.33	2.19	0.82	-0.61	-1.95	-3.2	-4.42	-5.69	-7.06	-8.59	-10.32	-12.24	-14.22	-15.94	-16.94	-16.7	-14.86	-11.4	-6.7	-1.43	3.61	7.76	10.68	12.33	12.88	12.55	11.5	9.84	7.69	5.29	3.03	1.34	0.51	0.57	1.26	2.19	2.99	3.48	3.64	3.51	3.12	2.43	1.37	-0.02	-1.64	-3.32	-4.94	-6.51	-8.16	-10.01	-12.1	-14.23	-15.99	-16.87	-16.42	-14.42	-10.96	-6.47	-1.51	3.3	7.5	10.79	13.02	14.15	14.22	13.33	11.71	9.65	7.48	5.49	3.87	2.7	1.95	1.56	1.39	1.33	1.27	1.11	0.81	0.31	-0.41	-1.33	-2.46	-3.74	-5.14	-6.63	-8.28	-10.21	-12.52	-15.22	-18.03	-20.46	-21.86	-21.69	-19.69	-15.99	-11.09	-5.63	-0.24	4.57	8.48	11.32	12.98	13.51	13.04	11.83	10.23	8.56	7.07	5.89	5.03	4.42	3.96	3.55	3.08	2.48	1.73	0.87	-0.02	-0.85	-1.53	-2.05	-2.43	-2.78	-3.25	-4	-5.15
14.15	14.22	13.33	11.71	9.65	7.48	5.49	3.87	2.7	1.95	1.56	1.39	1.33	1.27	1.11	0.81	0.31	-0.41	-1.33	-2.46	-3.74	-5.14	-6.63	-8.28	-10.21	-12.52	-15.22	-18.03	-20.46	-21.86	-21.69	-19.69	-15.99	-11.09	-5.63	-0.24	4.57	8.48	11.32	12.98	13.51	13.04	11.83	10.23	8.56	7.07	5.89	5.03	4.42	3.96	3.55	3.08	2.48	1.73	0.87	-0.02	-0.85	-1.53	-2.05	-2.43	-2.78	-3.25	-4	-5.15	-6.79	-8.85	-11.17	-13.4	-15.06	-15.65	-14.76	-12.21	-8.2	-3.25	1.94	6.71	10.57	13.36	15.17	16.17	16.52	16.23	15.3	13.73	11.69	9.46	7.41	5.83	4.81	4.31	4.11	4.01	3.87	3.61	3.2	2.62	1.8	0.69	-0.67	-2.22	-3.84	-5.5	-7.26	-9.25	-11.56	-14.09	-16.52	-18.28	-18.78	-17.63	-14.75	-10.45	-5.31	-0	4.89	8.93	11.89	13.65	14.16	13.5	11.83	9.44	6.73	4.11	1.95	0.44	-0.36	-0.59
-6.79	-8.85	-11.17	-13.4	-15.06	-15.65	-14.76	-12.21	-8.2	-3.25	1.94	6.71	10.57	13.36	15.17	16.17	16.52	16.23	15.3	13.73	11.69	9.46	7.41	5.83	4.81	4.31	4.11	4.01	3.87	3.61	3.2	2.62	1.8	0.69	-0.67	-2.22	-3.84	-5.5	-7.26	-9.25	-11.56	-14.09	-16.52	-18.28	-18.78	-17.63	-14.75	-10.45	-5.31	-0	4.89	8.93	11.89	13.65	14.16	13.5	11.83	9.44	6.73	4.11	1.95	0.44	-0.36	-0.59	-0.46	-0.27	-0.26	-0.6	-1.33	-2.32	-3.37	-4.3	-5.03	-5.66	-6.44	-7.63	-9.41	-11.74	-14.41	-17.05	-19.23	-20.55	-20.69	-19.42	-16.62	-12.44	-7.23	-1.59	3.83	8.39	11.71	13.68	14.45	14.3	13.53	12.37	10.94	9.33	7.65	6.04	4.68	3.73	3.25	3.11	3.09	2.94	2.49	1.73	0.79	-0.18	-1.1	-2.03	-3.1	-4.48	-6.25	-8.38	-10.75	-13.17	-15.45	-17.38	-18.71	-19.12	-18.31	-16.07	-12.42	-7.65	-2.24	3.19
-0.46	-0.27	-0.26	-0.6	-1.33	-2.32	-3.37	-4.3	-5.03	-5.66	-6.44	-7.63	-9.41	-11.74	-14.41	-17.05	-19.23	-20.55	-20.69	-19.42	-16.62	-12.44	-7.23	-1.59	3.83	8.39	11.71	13.68	14.45	14.3	13.53	12.37	10.94	9.33	7.65	6.04	4.68	3.73	3.25	3.11	3.09	2.94	2.49	1.73	0.79	-0.18	-1.1	-2.03	-3.1	-4.48	-6.25	-8.38	-10.75	-13.17	-15.45	-17.38	-18.71	-19.12	-18.31	-16.07	-12.42	-7.65	-2.24	3.19	8.03	11.84	14.38	15.66	15.82	15.09	13.71	11.89	9.85	7.8	6	4.67	3.98	3.94	4.35	4.9	5.25	5.16	4.58	3.61	2.43	1.16	-0.16	-1.59	-3.22	-5.08	-7.13	-9.3	-11.51	-13.73	-15.88	-17.76	-19.04	-19.3	-18.15	-15.41	-11.22	-6.06	-0.57	4.59	8.91	12.11	14.13	15.07	15.1	14.42	13.19	11.67	10.04	8.51	7.24	6.27	5.61	5.24	5.11	5.17	5.34	5.51	5.53	5.25	4.54	3.37	1.8	-0.01
8.03	11.84	14.38	15.66	15.82	15.09	13.71	11.89	9.85	7.8	6	4.67	3.98	3.94	4.35	4.9	5.25	5.16	4.58	3.61	2.43	1.16	-0.16	-1.59	-3.22	-5.08	-7.13	-9.3	-11.51	-13.73	-15.88	-17.76	-19.04	-19.3	-18.15	-15.41	-11.22	-6.06	-0.57	4.59	8.91	12.11	14.13	15.07	15.1	14.42	13.19	11.67	10.04	8.51	7.24	6.27	5.61	5.24	5.11	5.17	5.34	5.51	5.53	5.25	4.54	3.37	1.8	-0.01	-1.93	-3.85	-5.75	-7.64	-9.59	-11.64	-13.75	-15.79	-17.45	-18.3	-17.87	-15.83	-12.12	-7.05	-1.25	4.5	9.54	13.46	16.14	17.63	18.01	17.39	15.9	13.79	11.49	9.4	7.85	6.94	6.55	6.46	6.46	6.41	6.19	5.69	4.82	3.53	1.91	0.21	-1.33	-2.58	-3.61	-4.66	-6.01	-7.82	-10.05	-12.56	-15.14	-17.56	-19.59	-20.88	-21.04	-19.72	-16.74	-12.27	-6.83	-1.16	3.99	8.09	10.9	12.46	13.01	12.79	12.02	10.88
-1.93	-3.85	-5.75	-7.64	-9.59	-11.64	-13.75	-15.79	-17.45	-18.3	-17.87	-15.83	-12.12	-7.05	-1.25	4.5	9.54	13.46	16.14	17.63	18.01	17.39	15.9	13.79	11.49	9.4	7.85	6.94	6.55	6.46	6.46	6.41	6.19	5.69	4.82	3.53	1.91	0.21	-1.33	-2.58	-3.61	-4.66	-6.01	-7.82	-10.05	-12.56	-15.14	-17.56	-19.59	-20.88	-21.04	-19.72	-16.74	-12.27	-6.83	-1.16	3.99	8.09	10.9	12.46	13.01	12.79	12.02	10.88	9.5	8.05	6.71	5.65	4.97	4.67	4.66	4.76	4.77	4.57	4.08	3.29	2.26	1.02	-0.38	-1.88	-3.47	-5.13	-6.89	-8.79	-10.86	-13.1	-15.47	-17.8	-19.85	-21.24	-21.51	-20.25	-17.24	-12.54	-6.63	-0.26	5.72	10.61	14.01	15.88	16.47	16.15	15.26	14.03	12.62	11.11	9.59	8.19	7.06	6.32	5.99	5.99	6.13	6.16	5.92	5.31	4.34	3.13	1.78	0.36	-1.09	-2.59	-4.22	-6.04	-8.15	-10.59	-13.29	-16.09
9.5	8.05	6.71	5.65	4.97	4.67	4.66	4.76	4.77	4.57	4.08	3.29	2.26	1.02	-0.38	-1.88	-3.47	-5.13	-6.89	-8.79	-10.86	-13.1	-15.47	-17.8	-19.85	-21.24	-21.51	-20.25	-17.24	-12.54	-6.63	-0.26	5.72	10.61	14.01	15.88	16.47	16.15	15.26	14.03	12.62	11.11	9.59	8.19	7.06	6.32	5.99	5.99	6.13	6.16	5.92	5.31	4.34	3.13	1.78	0.36	-1.09	-2.59	-4.22	-6.04	-8.15	-10.59	-13.29	-16.09	-18.65	-20.59	-21.51	-21.1	-19.14	-15.62	-10.76	-4.98	1.12	6.85	11.56	14.84	16.53	16.8	15.97	14.45	12.62	10.73	8.97	7.44	6.18	5.26	4.68	4.46	4.52	4.72	4.83	4.65	4.05	3.04	1.74	0.33	-1.1	-2.55	-4.11	-5.92	-8	-10.3	-12.71	-15.06	-17.18	-18.86	-19.82	-19.7	-18.18	-15.08	-10.54	-5.01	0.78	6.09	10.33	13.18	14.69	15.11	14.78	14.04	13.11	12.1	11.05	9.96	8.83	7.71	6.68	5.85
-18.65	-20.59	-21.51	-21.1	-19.14	-15.62	-10.76	-4.98	1.12	6.85	11.56	14.84	16.53	16.8	15.97	14.45	12.62	10.73	8.97	7.44	6.18	5.26	4.68	4.46	4.52	4.72	4.83	4.65	4.05	3.04	1.74	0.33	-1.1	-2.55	-4.11	-5.92	-8	-10.3	-12.71	-15.06	-17.18	-18.86	-19.82	-19.7	-18.18	-15.08	-10.54	-5.01	0.78	6.09	10.33	13.18	14.69	15.11	14.78	14.04	13.11	12.1	11.05	9.96	8.83	7.71	6.68	5.85	5.28	4.97	4.8	4.57	4.11	3.35	2.34	1.18	-0.05	-1.4	-2.97	-4.84	-7	-9.34	-11.73	-14.03	-16.13	-17.9	-19.05	-19.19	-17.87	-14.83	-10.2	-4.51	1.48	6.99	11.5	14.83	17.02	18.2	18.51	18.01	16.76	14.9	12.71	10.5	8.54	7.01	5.96	5.33	5.03	4.94	4.88	4.66	4.07	3.05	1.62	-0.03	-1.7	-3.27	-4.75	-6.3	-8.1	-10.33	-12.99	-15.92	-18.73	-20.93	-21.92	-21.19	-18.42	-13.67	-7.46	-0.65
5.28	4.97	4.8	4.57	4.11	3.35	2.34	1.18	-0.05	-1.4	-2.97	-4.84	-7	-9.34	-11.73	-14.03	-16.13	-17.9	-19.05	-19.19	-17.87	-14.83	-10.2	-4.51	1.48	6.99	11.5	14.83	17.02	18.2	18.51	18.01	16.76	14.9	12.71	10.5	8.54	7.01	5.96	5.33	5.03	4.94	4.88	4.66	4.07	3.05	1.62	-0.03	-1.7	-3.27	-4.75	-6.3	-8.1	-10.33	-12.99	-15.92	-18.73	-20.93	-21.92	-21.19	-18.42	-13.67	-7.46	-0.65	5.81	11.11	14.8	16.87	17.56	17.23	16.17	14.61	12.71	10.69	8.81	7.3	6.29	5.71	5.36	4.95	4.28	3.29	2.05	0.73	-0.52	-1.59	-2.53	-3.47	-4.57	-5.98	-7.77	-9.96	-12.49	-15.29	-18.19	-20.94	-23.1	-24.12	-23.48	-20.89	-16.45	-10.64	-4.21	2.1	7.72	12.29	15.63	17.62	18.21	17.47	15.65	13.23	10.79	8.79	7.44	6.67	6.29	6.1	6.05	6.12	6.31	6.45	6.29	5.58	4.22	2.38	0.37	-1.47
5.81	11.11	14.8	16.87	17.56	17.23	16.17	14.61	12.71	10.69	8.81	7.3	6.29	5.71	5.36	4.95	4.28	3.29	2.05	0.73	-0.52	-1.59	-2.53	-3.47	-4.57	-5.98	-7.77	-9.96	-12.49	-15.29	-18.19	-20.94	-23.1	-24.12	-23.48	-20.89	-16.45	-10.64	-4.21	2.1	7.72	12.29	15.63	17.62	18.21	17.47	15.65	13.23	10.79	8.79	7.44	6.67	6.29	6.1	6.05	6.12	6.31	6.45	6.29	5.58	4.22	2.38	0.37	-1.47	-2.97	-4.2	-5.45	-7.02	-9.12	-11.76	-14.78	-17.88	-20.71	-22.85	-23.89	-23.42	-21.15	-17.07	-11.53	-5.17	1.17	6.76	11.12	14.09	15.77	16.38	16.18	15.39	14.17	12.69	11.12	9.65	8.46	7.63	7.17	7	7	7.04	7.03	6.89	6.53	5.88	4.87	3.48	1.78	-0.11	-2.01	-3.81	-5.47	-7.06	-8.75	-10.73	-13.06	-15.68	-18.25	-20.24	-21.01	-20.01	-17	-12.13	-6.01	0.52	6.56	11.45	14.86	16.83	17.61	17.51
-2.97	-4.2	-5.45	-7.02	-9.12	-11.76	-14.78	-17.88	-20.71	-22.85	-23.89	-23.42	-21.15	-17.07	-11.53	-5.17	1.17	6.76	11.12	14.09	15.77	16.38	16.18	15.39	14.17	12.69	11.12	9.65	8.46	7.63	7.17	7	7	7.04	7.03	6.89	6.53	5.88	4.87	3.48	1.78	-0.11	-2.01	-3.81	-5.47	-7.06	-8.75	-10.73	-13.06	-15.68	-18.25	-20.24	-21.01	-20.01	-17	-12.13	-6.01	0.52	6.56	11.45	14.86	16.83	17.61	17.51	16.79	15.59	13.98	12.08	10.11	8.36	7.11	6.47	6.38	6.58	6.8	6.8	6.47	5.85	4.97	3.83	2.39	0.63	-1.38	-3.51	-5.58	-7.51	-9.36	-11.31	-13.54	-16.15	-19.03	-21.87	-24.17	-25.36	-24.9	-22.45	-18.02	-12.07	-5.38	1.12	6.61	10.68	13.29	14.69	15.23	15.12	14.49	13.46	12.16	10.83	9.68	8.83	8.24	7.81	7.4	6.94	6.46	5.93	5.32	4.55	3.55	2.27	0.77	-0.85	-2.51	-4.15	-5.76	-7.35
16.79	15.59	13.98	12.08	10.11	8.36	7.11	6.47	6.38	6.58	6.8	6.8	6.47	5.85	4.97	3.83	2.39	0.63	-1.38	-3.51	-5.58	-7.51	-9.36	-11.31	-13.54	-16.15	-19.03	-21.87	-24.17	-25.36	-24.9	-22.45	-18.02	-12.07	-5.38	1.12	6.61	10.68	13.29	14.69	15.23	15.12	14.49	13.46	12.16	10.83	9.68	8.83	8.24	7.81	7.4	6.94	6.46	5.93	5.32	4.55	3.55	2.27	0.77	-0.85	-2.51	-4.15	-5.76	-7.35	-8.97	-10.69	-12.55	-14.55	-16.54	-18.17	-18.96	-18.37	-16.02	-11.92	-6.46	-0.38	5.49	10.46	14.15	16.51	17.69	17.9	17.32	16.08	14.32	12.26	10.19	8.44	7.22	6.59	6.41	6.44	6.39	6.13	5.61	4.93	4.15	3.32	2.41	1.39	0.27	-0.91	-2.1	-3.33	-4.7	-6.38	-8.49	-11	-13.62	-15.88	-17.2	-17.07	-15.22	-11.69	-6.85	-1.3	4.28	9.28	13.29	16.09	17.67	18.14	17.72	16.6	15.01	13.14	11.19	9.34
-8.97	-10.69	-12.55	-14.55	-16.54	-18.17	-18.96	-18.37	-16.02	-11.92	-6.46	-0.38	5.49	10.46	14.15	16.51	17.69	17.9	17.32	16.08	14.32	12.26	10.19	8.44	7.22	6.59	6.41	6.44	6.39	6.13	5.61	4.93	4.15	3.32	2.41	1.39	0.27	-0.91	-2.1	-3.33	-4.7	-6.38	-8.49	-11	-13.62	-15.88	-17.2	-17.07	-15.22	-11.69	-6.85	-1.3	4.28	9.28	13.29	16.09	17.67	18.14	17.72	16.6	15.01	13.14	11.19	9.34	7.78	6.68	6.1	6.03	6.28	6.62	6.79	6.64	6.12	5.3	4.25	3.03	1.63	-0.02	-1.97	-4.2	-6.71	-9.41	-12.24	-15.1	-17.76	-19.86	-20.92	-20.5	-18.34	-14.59	-9.78	-4.65	0.04	3.77	6.36	7.93	8.69	8.86	8.53	7.7	6.36	4.6	2.65	0.84	-0.49	-1.11	-0.99	-0.34	0.52	1.25	1.68	1.83	1.84	1.87	1.89	1.72	1.12	-0.12	-1.98	-4.32	-6.88	-9.43	-11.84	-14	-15.78	-16.91	-17.04	-15.81
7.78	6.68	6.1	6.03	6.28	6.62	6.79	6.64	6.12	5.3	4.25	3.03	1.63	-0.02	-1.97	-4.2	-6.71	-9.41	-12.24	-15.1	-17.76	-19.86	-20.92	-20.5	-18.34	-14.59	-9.78	-4.65	0.04	3.77	6.36	7.93	8.69	8.86	8.53	7.7	6.36	4.6	2.65	0.84	-0.49	-1.11	-0.99	-0.34	0.52	1.25	1.68	1.83	1.84	1.87	1.89	1.72	1.12	-0.12	-1.98	-4.32	-6.88	-9.43	-11.84	-14	-15.78	-16.91	-17.04	-15.81	-13.06	-8.93	-3.91	1.3	6.01	9.75	12.34	13.89	14.61	14.62	13.93	12.5	10.41	7.99	5.73	4.13	3.42	3.49	3.96	4.39	4.49	4.22	3.71	3.1	2.4	1.53	0.41	-1.02	-2.7	-4.51	-6.41	-8.42	-10.6	-12.93	-15.23	-17.09	-18.01	-17.49	-15.28	-11.44	-6.4	-0.86	4.41	8.76	11.78	13.37	13.67	12.95	11.51	9.63	7.52	5.38	3.38	1.7	0.5	-0.12	-0.15	0.27	0.89	1.37	1.43	0.97	0.09	-0.96
-13.06	-8.93	-3.91	1.3	6.01	9.75	12.34	13.89	14.61	14.62	13.93	12.5	10.41	7.99	5.73	4.13	3.42	3.49	3.96	4.39	4.49	4.22	3.71	3.1	2.4	1.53	0.41	-1.02	-2.7	-4.51	-6.41	-8.42	-10.6	-12.93	-15.23	-17.09	-18.01	-17.49	-15.28	-11.44	-6.4	-0.86	4.41	8.76	11.78	13.37	13.67	12.95	11.51	9.63	7.52	5.38	3.38	1.7	0.5	-0.12	-0.15	0.27	0.89	1.37	1.43	0.97	0.09	-0.96	-1.93	-2.73	-3.49	-4.43	-5.81	-7.69	-9.96	-12.38	-14.65	-16.49	-17.62	-17.75	-16.57	-13.92	-9.86	-4.77	0.66	5.66	9.58	12.1	13.22	13.21	12.46	11.25	9.77	8.12	6.39	4.73	3.32	2.31	1.73	1.49	1.36	1.14	0.69	0.01	-0.78	-1.59	-2.32	-3	-3.66	-4.4	-5.27	-6.38	-7.78	-9.48	-11.39	-13.21	-14.5	-14.78	-13.71	-11.21	-7.53	-3.14	1.4	5.6	9.16	11.91	13.79	14.79	14.88	14.08	12.52	10.43
-1.93	-2.73	-3.49	-4.43	-5.81	-7.69	-9.96	-12.38	-14.65	-16.49	-17.62	-17.75	-16.57	-13.92	-9.86	-4.77	0.66	5.66	9.58	12.1	13.22	13.21	12.46	11.25	9.77	8.12	6.39	4.73	3.32	2.31	1.73	1.49	1.36	1.14	0.69	0.01	-0.78	-1.59	-2.32	-3	-3.66	-4.4	-5.27	-6.38	-7.78	-9.48	-11.39	-13.21	-14.5	-14.78	-13.71	-11.21	-7.53	-3.14	1.4	5.6	9.16	11.91	13.79	14.79	14.88	14.08	12.52	10.43	8.17	6.08	4.43	3.31	2.63	2.2	1.83	1.37	0.75	-0.02	-0.93	-1.95	-3.04	-4.16	-5.29	-6.49	-7.88	-9.65	-11.89	-14.54	-17.23	-19.42	-20.51	-20.04	-17.87	-14.2	-9.49	-4.34	0.67	5.12	8.76	11.47	13.28	14.19	14.23	13.44	11.91	9.89	7.75	5.89	4.61	3.96	3.73	3.53	2.97	1.85	0.25	-1.56	-3.21	-4.49	-5.33	-5.9	-6.45	-7.26	-8.51	-10.26	-12.38	-14.63	-16.62	-17.88	-17.95	-16.48	-13.4	-8.96
8.17	6.08	4.43	3.31	2.63	2.2	1.83	1.37	0.75	-0.02	-0.93	-1.95	-3.04	-4.16	-5.29	-6.49	-7.88	-9.65	-11.89	-14.54	-17.23	-19.42	-20.51	-20.04	-17.87	-14.2	-9.49	-4.34	0.67	5.12	8.76	11.47	13.28	14.19	14.23	13.44	11.91	9.89	7.75	5.89	4.61	3.96	3.73	3.53	2.97	1.85	0.25	-1.56	-3.21	-4.49	-5.33	-5.9	-6.45	-7.26	-8.51	-10.26	-12.38	-14.63	-16.62	-17.88	-17.95	-16.48	-13.4	-8.96	-3.72	1.62	6.35	10	12.4	13.61	13.81	13.21	11.98	10.24	8.18	6.06	4.19	2.87	2.23	2.18	2.45	2.67	2.5	1.81	0.66	-0.77	-2.2	-3.49	-4.59	-5.63	-6.8	-8.28	-10.2	-12.48	-14.9	-17.03	-18.36	-18.4	-16.86	-13.78	-9.47	-4.44	0.71	5.45	9.36	12.18	13.79	14.23	13.68	12.41	10.75	8.99	7.32	5.87	4.68	3.8	3.29	3.15	3.34	3.69	3.97	3.96	3.52	2.65	1.5	0.19	-1.19	-2.65
-3.72	1.62	6.35	10	12.4	13.61	13.81	13.21	11.98	10.24	8.18	6.06	4.19	2.87	2.23	2.18	2.45	2.67	2.5	1.81	0.66	-0.77	-2.2	-3.49	-4.59	-5.63	-6.8	-8.28	-10.2	-12.48	-14.9	-17.03	-18.36	-18.4	-16.86	-13.78	-9.47	-4.44	0.71	5.45	9.36	12.18	13.79	14.23	13.68	12.41	10.75	8.99	7.32	5.87	4.68	3.8	3.29	3.15	3.34	3.69	3.97	3.96	3.52	2.65	1.5	0.19	-1.19	-2.65	-4.33	-6.31	-8.65	-11.23	-13.82	-16.05	-17.51	-17.75	-16.45	-13.49	-9.04	-3.54	2.34	7.85	12.37	15.55	17.31	17.82	17.37	16.26	14.75	13.05	11.36	9.86	8.67	7.88	7.45	7.28	7.2	7.06	6.75	6.22	5.45	4.43	3.17	1.67	-0.02	-1.81	-3.63	-5.42	-7.22	-9.12	-11.22	-13.51	-15.85	-17.87	-19.07	-18.92	-17.05	-13.39	-8.3	-2.48	3.21	8	11.4	13.34	14.01	13.79	13	11.9	10.67	9.47	8.45	7.72
-4.33	-6.31	-8.65	-11.23	-13.82	-16.05	-17.51	-17.75	-16.45	-13.49	-9.04	-3.54	2.34	7.85	12.37	15.55	17.31	17.82	17.37	16.26	14.75	13.05	11.36	9.86	8.67	7.88	7.45	7.28	7.2	7.06	6.75	6.22	5.45	4.43	3.17	1.67	-0.02	-1.81	-3.63	-5.42	-7.22	-9.12	-11.22	-13.51	-15.85	-17.87	-19.07	-18.92	-17.05	-13.39	-8.3	-2.48	3.21	8	11.4	13.34	14.01	13.79	13	11.9	10.67	9.47	8.45	7.72	7.3	7.07	6.9	6.68	6.35	5.96	5.54	5.08	4.52	3.76	2.71	1.36	-0.27	-2.07	-3.92	-5.72	-7.42	-9.06	-10.74	-12.57	-14.52	-16.42	-17.89	-18.46	-17.72	-15.45	-11.76	-7.04	-1.84	3.26	7.81	11.5	14.19	15.79	16.33	15.89	14.62	12.84	10.88	9.09	7.67	6.69	6.08	5.73	5.54	5.49	5.57	5.71	5.81	5.67	5.14	4.11	2.62	0.85	-0.98	-2.66	-4.06	-5.23	-6.31	-7.5	-8.95	-10.72	-12.79	-15.01
7.3	7.07	6.9	6.68	6.35	5.96	5.54	5.08	4.52	3.76	2.71	1.36	-0.27	-2.07	-3.92	-5.72	-7.42	-9.06	-10.74	-12.57	-14.52	-16.42	-17.89	-18.46	-17.72	-15.45	-11.76	-7.04	-1.84	3.26	7.81	11.5	14.19	15.79	16.33	15.89	14.62	12.84	10.88	9.09	7.67	6.69	6.08	5.73	5.54	5.49	5.57	5.71	5.81	5.67	5.14	4.11	2.62	0.85	-0.98	-2.66	-4.06	-5.23	-6.31	-7.5	-8.95	-10.72	-12.79	-15.01	-17.06	-18.52	-18.92	-17.84	-15.12	-10.96	-5.86	-0.52	4.38	8.36	11.22	12.97	13.77	13.82	13.29	12.34	11.15	9.86	8.64	7.63	6.89	6.44	6.23	6.15	6.05	5.81	5.31	4.5	3.38	2.03	0.53	-0.99	-2.4	-3.64	-4.7	-5.66	-6.69	-8	-9.78	-12.11	-14.82	-17.48	-19.42	-19.92	-18.52	-15.14	-10.23	-4.58	0.91	5.55	9	11.26	12.55	13.09	13.03	12.41	11.29	9.83	8.27	6.91	5.92	5.36	5.12	5.03
-17.06	-18.52	-18.92	-17.84	-15.12	-10.96	-5.86	-0.52	4.38	8.36	11.22	12.97	13.77	13.82	13.29	12.34	11.15	9.86	8.64	7.63	6.89	6.44	6.23	6.15	6.05	5.81	5.31	4.5	3.38	2.03	0.53	-0.99	-2.4	-3.64	-4.7	-5.66	-6.69	-8	-9.78	-12.11	-14.82	-17.48	-19.42	-19.92	-18.52	-15.14	-10.23	-4.58	0.91	5.55	9	11.26	12.55	13.09	13.03	12.41	11.29	9.83	8.27	6.91	5.92	5.36	5.12	5.03	4.96	4.86	4.78	4.71	4.58	4.21	3.39	2.01	0.15	-1.92	-3.85	-5.41	-6.54	-7.45	-8.46	-9.91	-11.92	-14.33	-16.67	-18.33	-18.69	-17.29	-14.03	-9.19	-3.42	2.48	7.67	11.6	14	14.94	14.68	13.58	11.99	10.21	8.49	6.99	5.77	4.85	4.19	3.78	3.63	3.7	3.94	4.16	4.11	3.57	2.48	0.98	-0.68	-2.22	-3.52	-4.65	-5.79	-7.17	-8.88	-10.91	-13.1	-15.22	-17.04	-18.27	-18.6	-17.7	-15.3	-11.32
4.96	4.86	4.78	4.71	4.58	4.21	3.39	2.01	0.15	-1.92	-3.85	-5.41	-6.54	-7.45	-8.46	-9.91	-11.92	-14.33	-16.67	-18.33	-18.69	-17.29	-14.03	-9.19	-3.42	2.48	7.67	11.6	14	14.94	14.68	13.58	11.99	10.21	8.49	6.99	5.77	4.85	4.19	3.78	3.63	3.7	3.94	4.16	4.11	3.57	2.48	0.98	-0.68	-2.22	-3.52	-4.65	-5.79	-7.17	-8.88	-10.91	-13.1	-15.22	-17.04	-18.27	-18.6	-17.7	-15.3	-11.32	-5.97	0.17	6.29	11.59	15.44	17.57	18.08	17.31	15.71	13.66	11.5	9.43	7.62	6.18	5.16	4.56	4.26	4.13	3.98	3.65	3.08	2.26	1.26	0.16	-0.97	-2.13	-3.33	-4.63	-6.07	-7.65	-9.36	-11.23	-13.28	-15.45	-17.58	-19.29	-20.07	-19.41	-17.04	-13.06	-7.99	-2.62	2.21	5.92	8.27	9.42	9.74	9.6	9.24	8.72	8.01	7.05	5.89	4.66	3.56	2.75	2.28	2.1	2.08	2.07	1.92	1.58	1.03	0.3
-5.97	0.17	6.29	11.59	15.44	17.57	18.08	17.31	15.71	13.66	11.5	9.43	7.62	6.18	5.16	4.56	4.26	4.13	3.98	3.65	3.08	2.26	1.26	0.16	-0.97	-2.13	-3.33	-4.63	-6.07	-7.65	-9.36	-11.23	-13.28	-15.45	-17.58	-19.29	-20.07	-19.41	-17.04	-13.06	-7.99	-2.62	2.21	5.92	8.27	9.42	9.74	9.6	9.24	8.72	8.01	7.05	5.89	4.66	3.56	2.75	2.28	2.1	2.08	2.07	1.92	1.58	1.03	0.3	-0.58	-1.62	-2.83	-4.27	-5.94	-7.83	-9.88	-11.99	-13.99	-15.69	-16.79	-16.96	-15.96	-13.72	-10.43	-6.46	-2.28	1.69	5.18	8.03	10.1	11.27	11.42	10.58	8.97	6.99	5.11	3.68	2.85	2.52	2.48	2.52	2.48	2.29	1.9	1.29	0.47	-0.47	-1.41	-2.21	-2.83	-3.38	-4.14	-5.42	-7.43	-10.15	-13.22	-16.01	-17.81	-18.02	-16.44	-13.21	-8.84	-3.97	0.8	5.02	8.44	10.96	12.54	13.15	12.84	11.74	10.04	8.06
-0.58	-1.62	-2.83	-4.27	-5.94	-7.83	-9.88	-11.99	-13.99	-15.69	-16.79	-16.96	-15.96	-13.72	-10.43	-6.46	-2.28	1.69	5.18	8.03	10.1	11.27	11.42	10.58	8.97	6.99	5.11	3.68	2.85	2.52	2.48	2.52	2.48	2.29	1.9	1.29	0.47	-0.47	-1.41	-2.21	-2.83	-3.38	-4.14	-5.42	-7.43	-10.15	-13.22	-16.01	-17.81	-18.02	-16.44	-13.21	-8.84	-3.97	0.8	5.02	8.44	10.96	12.54	13.15	12.84	11.74	10.04	8.06	6.1	4.41	3.15	2.34	1.88	1.57	1.14	0.35	-0.95	-2.72	-4.73	-6.66	-8.22	-9.29	-9.96	-10.54	-11.36	-12.65	-14.44	-16.54	-18.56	-20.03	-20.48	-19.53	-17	-12.99	-7.88	-2.28	3.07	7.54	10.76	12.62	13.34	13.25	12.73	12.04	11.33	10.62	9.9	9.18	8.47	7.83	7.27	6.77	6.29	5.79	5.22	4.57	3.83	3	2.07	0.97	-0.4	-2.17	-4.46	-7.29	-10.5	-13.76	-16.53	-18.23	-18.33	-16.59	-13.07	-8.19
6.1	4.41	3.15	2.34	1.88	1.57	1.14	0.35	-0.95	-2.72	-4.73	-6.66	-8.22	-9.29	-9.96	-10.54	-11.36	-12.65	-14.44	-16.54	-18.56	-20.03	-20.48	-19.53	-17	-12.99	-7.88	-2.28	3.07	7.54	10.76	12.62	13.34	13.25	12.73	12.04	11.33	10.62	9.9	9.18	8.47	7.83	7.27	6.77	6.29	5.79	5.22	4.57	3.83	3	2.07	0.97	-0.4	-2.17	-4.46	-7.29	-10.5	-13.76	-16.53	-18.23	-18.33	-16.59	-13.07	-8.19	-2.59	3.01	8.04	12.11	15.07	16.92	17.74	17.62	16.71	15.2	13.33	11.39	9.62	8.23	7.32	6.88	6.74	6.64	6.27	5.42	4.06	2.37	0.69	-0.69	-1.6	-2.14	-2.6	-3.38	-4.79	-7.01	-9.93	-13.18	-16.12	-18.04	-18.27	-16.43	-12.58	-7.22	-1.12	4.85	10.07	14.15	17.02	18.74	19.42	19.14	17.97	16.04	13.57	10.87	8.25	5.97	4.13	2.67	1.43	0.23	-1.06	-2.45	-3.85	-5.11	-6.16	-6.99	-7.69	-8.4
-2.59	3.01	8.04	12.11	15.07	16.92	17.74	17.62	16.71	15.2	13.33	11.39	9.62	8.23	7.32	6.88	6.74	6.64	6.27	5.42	4.06	2.37	0.69	-0.69	-1.6	-2.14	-2.6	-3.38	-4.79	-7.01	-9.93	-13.18	-16.12	-18.04	-18.27	-16.43	-12.58	-7.22	-1.12	4.85	10.07	14.15	17.02	18.74	19.42	19.14	17.97	16.04	13.57	10.87	8.25	5.97	4.13	2.67	1.43	0.23	-1.06	-2.45	-3.85	-5.11	-6.16	-6.99	-7.69	-8.4	-9.24	-10.3	-11.63	-13.22	-15.05	-16.95	-18.67	-19.77	-19.78	-18.33	-15.25	-10.74	-5.28	0.49	5.94	10.6	14.2	16.63	17.91	18.11	17.37	15.94	14.09	12.16	10.41	9.05	8.14	7.66	7.47	7.41	7.29	6.92	6.21	5.12	3.71	2.1	0.44	-1.18	-2.8	-4.52	-6.52	-8.92	-11.72	-14.67	-17.35	-19.2	-19.67	-18.4	-15.32	-10.69	-5.07	0.84	6.32	10.83	14.1	16.08	16.88	16.69	15.66	13.96	11.77	9.4	7.17	5.39
-9.24	-10.3	-11.63	-13.22	-15.05	-16.95	-18.67	-19.77	-19.78	-18.33	-15.25	-10.74	-5.28	0.49	5.94	10.6	14.2	16.63	17.91	18.11	17.37	15.94	14.09	12.16	10.41	9.05	8.14	7.66	7.47	7.41	7.29	6.92	6.21	5.12	3.71	2.1	0.44	-1.18	-2.8	-4.52	-6.52	-8.92	-11.72	-14.67	-17.35	-19.2	-19.67	-18.4	-15.32	-10.69	-5.07	0.84	6.32	10.83	14.1	16.08	16.88	16.69	15.66	13.96	11.77	9.4	7.17	5.39	4.22	3.68	3.59	3.7	3.77	3.64	3.27	2.7	2	1.22	0.31	-0.82	-2.29	-4.15	-6.34	-8.74	-11.17	-13.48	-15.45	-16.84	-17.3	-16.48	-14.14	-10.33	-5.37	0.15	5.58	10.37	14.12	16.67	17.96	18.05	17.03	15.13	12.65	10.01	7.61	5.76	4.59	4.03	3.87	3.84	3.68	3.27	2.56	1.58	0.43	-0.76	-1.89	-2.93	-3.91	-5	-6.41	-8.31	-10.7	-13.37	-15.87	-17.64	-18.1	-16.85	-13.79	-9.16	-3.55	2.26
4.22	3.68	3.59	3.7	3.77	3.64	3.27	2.7	2	1.22	0.31	-0.82	-2.29	-4.15	-6.34	-8.74	-11.17	-13.48	-15.45	-16.84	-17.3	-16.48	-14.14	-10.33	-5.37	0.15	5.58	10.37	14.12	16.67	17.96	18.05	17.03	15.13	12.65	10.01	7.61	5.76	4.59	4.03	3.87	3.84	3.68	3.27	2.56	1.58	0.43	-0.76	-1.89	-2.93	-3.91	-5	-6.41	-8.31	-10.7	-13.37	-15.87	-17.64	-18.1	-16.85	-13.79	-9.16	-3.55	2.26	7.55	11.76	14.65	16.21	16.64	16.17	15.03	13.41	11.52	9.61	7.91	6.61	5.77	5.32	5.08	4.82	4.34	3.54	2.44	1.16	-0.17	-1.4	-2.53	-3.63	-4.83	-6.28	-8.04	-10.1	-12.32	-14.51	-16.39	-17.65	-17.9	-16.83	-14.27	-10.31	-5.37	-0.11	4.72	8.53	10.99	12.1	12.1	11.26	9.85	8.07	6.11	4.2	2.59	1.47	0.9	0.76	0.82	0.83	0.68	0.38	0.01	-0.3	-0.53	-0.74	-1.05	-1.56	-2.38	-3.62
7.55	11.76	14.65	16.21	16.64	16.17	15.03	13.41	11.52	9.61	7.91	6.61	5.77	5.32	5.08	4.82	4.34	3.54	2.44	1.16	-0.17	-1.4	-2.53	-3.63	-4.83	-6.28	-8.04	-10.1	-12.32	-14.51	-16.39	-17.65	-17.9	-16.83	-14.27	-10.31	-5.37	-0.11	4.72	8.53	10.99	12.1	12.1	11.26	9.85	8.07	6.11	4.2	2.59	1.47	0.9	0.76	0.82	0.83	0.68	0.38	0.01	-0.3	-0.53	-0.74	-1.05	-1.56	-2.38	-3.62	-5.37	-7.68	-10.49	-13.56	-16.42	-18.48	-19.19	-18.24	-15.66	-11.8	-7.25	-2.58	1.78	5.58	8.72	11.15	12.84	13.77	14	13.72	13.19	12.69	12.4	12.32	12.34	12.28	12.01	11.5	10.84	10.13	9.49	8.88	8.23	7.4	6.25	4.72	2.79	0.51	-2.02	-4.6	-6.94	-8.67	-9.4	-8.87	-7.05	-4.21	-0.78	2.72	5.92	8.65	10.87	12.61	13.75	14.13	13.55	12.02	9.8	7.32	5.09	3.39	2.27	1.56	1.03	0.6
-5.37	-7.68	-10.49	-13.56	-16.42	-18.48	-19.19	-18.24	-15.66	-11.8	-7.25	-2.58	1.78	5.58	8.72	11.15	12.84	13.77	14	13.72	13.19	12.69	12.4	12.32	12.34	12.28	12.01	11.5	10.84	10.13	9.49	8.88	8.23	7.4	6.25	4.72	2.79	0.51	-2.02	-4.6	-6.94	-8.67	-9.4	-8.87	-7.05	-4.21	-0.78	2.72	5.92	8.65	10.87	12.61	13.75	14.13	13.55	12.02	9.8	7.32	5.09	3.39	2.27	1.56	1.03	0.6	0.33	0.4	0.91	1.83	2.92	3.84	4.27	4.04	3.16	1.77	0.09	-1.69	-3.37	-4.71	-5.47	-5.38	-4.3	-2.26	0.44	3.29	5.72	7.28	7.75	7.22	5.87	3.92	1.46	-1.45	-4.7	-8.05	-11.13	-13.54	-15.06	-15.76	-15.97	-16.11	-16.55	-17.44	-18.67	-20	-21.21	-22.21	-23.08	-24	-25.15	-26.6	-28.32	-30.09	-31.66	-32.67	-32.82	-31.77	-29.3	-25.31	-19.9	-13.38	-6.29	0.73	7.1	12.37	16.33	18.97	20.42	20.91
0.33	0.4	0.91	1.83	2.92	3.84	4.27	4.04	3.16	1.77	0.09	-1.69	-3.37	-4.71	-5.47	-5.38	-4.3	-2.26	0.44	3.29	5.72	7.28	7.75	7.22	5.87	3.92	1.46	-1.45	-4.7	-8.05	-11.13	-13.54	-15.06	-15.76	-15.97	-16.11	-16.55	-17.44	-18.67	-20	-21.21	-22.21	-23.08	-24	-25.15	-26.6	-28.32	-30.09	-31.66	-32.67	-32.82	-31.77	-29.3	-25.31	-19.9	-13.38	-6.29	0.73	7.1	12.37	16.33	18.97	20.42	20.91	20.73	20.18	19.5	18.87	18.34	17.81	17.12	16.16	14.9	13.4	11.8	10.19	8.61	6.98	5.2	3.18	0.87	-1.73	-4.66	-7.88	-11.22	-14.31	-16.61	-17.56	-16.79	-14.33	-10.55	-6.03	-1.38	2.95	6.68	9.65	11.74	12.83	12.89	11.97	10.3	8.2	6.04	4.15	2.76	1.99	1.81	2.02	2.33	2.41	2.05	1.26	0.2	-0.86	-1.74	-2.4	-3.07	-4.06	-5.67	-8.03	-10.99	-14.17	-16.96	-18.73	-18.91	-17.2	-13.62	-8.5
20.73	20.18	19.5	18.87	18.34	17.81	17.12	16.16	14.9	13.4	11.8	10.19	8.61	6.98	5.2	3.18	0.87	-1.73	-4.66	-7.88	-11.22	-14.31	-16.61	-17.56	-16.79	-14.33	-10.55	-6.03	-1.38	2.95	6.68	9.65	11.74	12.83	12.89	11.97	10.3	8.2	6.04	4.15	2.76	1.99	1.81	2.02	2.33	2.41	2.05	1.26	0.2	-0.86	-1.74	-2.4	-3.07	-4.06	-5.67	-8.03	-10.99	-14.17	-16.96	-18.73	-18.91	-17.2	-13.62	-8.5	-2.49	3.67	9.26	13.76	16.92	18.78	19.54	19.41	18.57	17.13	15.22	13	10.75	8.73	7.16	6.06	5.3	4.67	4.01	3.26	2.51	1.89	1.44	1.07	0.55	-0.4	-1.99	-4.29	-7.21	-10.52	-13.9	-16.95	-19.22	-20.21	-19.54	-17.01	-12.81	-7.45	-1.7	3.69	8.17	11.47	13.61	14.72	14.95	14.43	13.26	11.63	9.77	7.95	6.38	5.2	4.45	4.04	3.86	3.75	3.56	3.16	2.46	1.51	0.41	-0.73	-1.84	-2.94
-2.49	3.67	9.26	13.76	16.92	18.78	19.54	19.41	18.57	17.13	15.22	13	10.75	8.73	7.16	6.06	5.3	4.67	4.01	3.26	2.51	1.89	1.44	1.07	0.55	-0.4	-1.99	-4.29	-7.21	-10.52	-13.9	-16.95	-19.22	-20.21	-19.54	-17.01	-12.81	-7.45	-1.7	3.69	8.17	11.47	13.61	14.72	14.95	14.43	13.26	11.63	9.77	7.95	6.38	5.2	4.45	4.04	3.86	3.75	3.56	3.16	2.46	1.51	0.41	-0.73	-1.84	-2.94	-4.15	-5.56	-7.26	-9.25	-11.46	-13.79	-16.03	-17.87	-18.88	-18.57	-16.61	-12.96	-7.93	-2.17	3.61	8.76	12.89	15.79	17.46	17.95	17.44	16.15	14.44	12.67	11.16	10.08	9.43	9.1	8.91	8.7	8.37	7.87	7.23	6.46	5.57	4.52	3.28	1.84	0.27	-1.32	-2.77	-4.03	-5.15	-6.32	-7.72	-9.51	-11.68	-14.02	-16.14	-17.55	-17.78	-16.46	-13.42	-8.81	-3.06	3.19	9.16	14.18	17.78	19.77	20.24	19.51	17.98	16.08
-4.15	-5.56	-7.26	-9.25	-11.46	-13.79	-16.03	-17.87	-18.88	-18.57	-16.61	-12.96	-7.93	-2.17	3.61	8.76	12.89	15.79	17.46	17.95	17.44	16.15	14.44	12.67	11.16	10.08	9.43	9.1	8.91	8.7	8.37	7.87	7.23	6.46	5.57	4.52	3.28	1.84	0.27	-1.32	-2.77	-4.03	-5.15	-6.32	-7.72	-9.51	-11.68	-14.02	-16.14	-17.55	-17.78	-16.46	-13.42	-8.81	-3.06	3.19	9.16	14.18	17.78	19.77	20.24	19.51	17.98	16.08	14.16	12.48	11.15	10.14	9.35	8.61	7.8	6.9	5.99	5.22	4.7	4.4	4.14	3.66	2.72	1.22	-0.72	-2.85	-4.92	-6.8	-8.5	-10.17	-12.01	-14.09	-16.38	-18.71	-20.77	-22.19	-22.57	-21.59	-19.06	-15.05	-9.92	-4.25	1.27	6.04	9.69	12.08	13.37	13.78	13.53	12.78	11.64	10.23	8.73	7.33	6.23	5.48	5.02	4.71	4.4	4.03	3.65	3.34	3.12	2.94	2.63	2.03	1.05	-0.26	-1.79	-3.36	-4.87	-6.27
14.16	12.48	11.15	10.14	9.35	8.61	7.8	6.9	5.99	5.22	4.7	4.4	4.14	3.66	2.72	1.22	-0.72	-2.85	-4.92	-6.8	-8.5	-10.17	-12.01	-14.09	-16.38	-18.71	-20.77	-22.19	-22.57	-21.59	-19.06	-15.05	-9.92	-4.25	1.27	6.04	9.69	12.08	13.37	13.78	13.53	12.78	11.64	10.23	8.73	7.33	6.23	5.48	5.02	4.71	4.4	4.03	3.65	3.34	3.12	2.94	2.63	2.03	1.05	-0.26	-1.79	-3.36	-4.87	-6.27	-7.61	-8.98	-10.48	-12.11	-13.79	-15.3	-16.3	-16.41	-15.24	-12.62	-8.67	-3.82	1.26	5.89	9.59	12.17	13.72	14.42	14.44	13.86	12.7	11.08	9.22	7.42	5.93	4.83	4.03	3.41	2.84	2.32	1.86	1.48	1.06	0.43	-0.55	-1.9	-3.44	-4.93	-6.18	-7.15	-8.02	-9.04	-10.4	-12.12	-14.09	-16.11	-17.99	-19.57	-20.71	-21.17	-20.65	-18.84	-15.64	-11.27	-6.27	-1.31	2.95	6.14	8.19	9.27	9.69	9.69	9.45	9.05
-7.61	-8.98	-10.48	-12.11	-13.79	-15.3	-16.3	-16.41	-15.24	-12.62	-8.67	-3.82	1.26	5.89	9.59	12.17	13.72	14.42	14.44	13.86	12.7	11.08	9.22	7.42	5.93	4.83	4.03	3.41	2.84	2.32	1.86	1.48	1.06	0.43	-0.55	-1.9	-3.44	-4.93	-6.18	-7.15	-8.02	-9.04	-10.4	-12.12	-14.09	-16.11	-17.99	-19.57	-20.71	-21.17	-20.65	-18.84	-15.64	-11.27	-6.27	-1.31	2.95	6.14	8.19	9.27	9.69	9.69	9.45	9.05	8.57	8.04	7.52	7.05	6.68	6.4	6.23	6.19	6.28	6.48	6.7	6.77	6.49	5.74	4.45	2.68	0.57	-1.72	-4.02	-6.18	-8.11	-9.81	-11.38	-12.93	-14.56	-16.22	-17.66	-18.45	-18.13	-16.42	-13.35	-9.29	-4.83	-0.57	3.05	5.83	7.75	8.89	9.32	9.12	8.35	7.17	5.83	4.59	3.62	3	2.61	2.31	1.95	1.51	1.08	0.76	0.6	0.53	0.37	-0.08	-0.94	-2.22	-3.75	-5.31	-6.72	-7.88	-8.87	-9.86
8.57	8.04	7.52	7.05	6.68	6.4	6.23	6.19	6.28	6.48	6.7	6.77	6.49	5.74	4.45	2.68	0.57	-1.72	-4.02	-6.18	-8.11	-9.81	-11.38	-12.93	-14.56	-16.22	-17.66	-18.45	-18.13	-16.42	-13.35	-9.29	-4.83	-0.57	3.05	5.83	7.75	8.89	9.32	9.12	8.35	7.17	5.83	4.59	3.62	3	2.61	2.31	1.95	1.51	1.08	0.76	0.6	0.53	0.37	-0.08	-0.94	-2.22	-3.75	-5.31	-6.72	-7.88	-8.87	-9.86	-11.07	-12.6	-14.46	-16.43	-18.14	-19.13	-18.96	-17.33	-14.22	-9.94	-5.03	-0.13	4.2	7.6	9.96	11.33	11.82	11.58	10.78	9.6	8.22	6.8	5.42	4.11	2.88	1.82	1.07	0.75	0.85	1.14	1.31	1.09	0.38	-0.66	-1.8	-2.87	-3.86	-4.93	-6.22	-7.79	-9.56	-11.42	-13.32	-15.29	-17.34	-19.32	-20.89	-21.51	-20.66	-18.07	-13.85	-8.48	-2.71	2.71	7.19	10.39	12.25	12.93	12.74	12.03	11.14	10.27	9.49	8.73
-11.07	-12.6	-14.46	-16.43	-18.14	-19.13	-18.96	-17.33	-14.22	-9.94	-5.03	-0.13	4.2	7.6	9.96	11.33	11.82	11.58	10.78	9.6	8.22	6.8	5.42	4.11	2.88	1.82	1.07	0.75	0.85	1.14	1.31	1.09	0.38	-0.66	-1.8	-2.87	-3.86	-4.93	-6.22	-7.79	-9.56	-11.42	-13.32	-15.29	-17.34	-19.32	-20.89	-21.51	-20.66	-18.07	-13.85	-8.48	-2.71	2.71	7.19	10.39	12.25	12.93	12.74	12.03	11.14	10.27	9.49	8.73	7.9	6.96	5.99	5.15	4.58	4.34	4.28	4.18	3.78	2.94	1.7	0.2	-1.38	-2.9	-4.31	-5.63	-6.93	-8.32	-9.93	-11.83	-14.06	-16.45	-18.68	-20.19	-20.43	-18.93	-15.59	-10.69	-4.83	1.24	6.83	11.47	14.96	17.27	18.48	18.69	18.05	16.73	14.94	12.95	11.01	9.31	7.97	7.04	6.55	6.46	6.67	6.97	7.14	6.92	6.17	4.87	3.17	1.33	-0.44	-2.03	-3.49	-5	-6.72	-8.74	-11.02	-13.42	-15.68	-17.47
7.9	6.96	5.99	5.15	4.58	4.34	4.28	4.18	3.78	2.94	1.7	0.2	-1.38	-2.9	-4.31	-5.63	-6.93	-8.32	-9.93	-11.83	-14.06	-16.45	-18.68	-20.19	-20.43	-18.93	-15.59	-10.69	-4.83	1.24	6.83	11.47	14.96	17.27	18.48	18.69	18.05	16.73	14.94	12.95	11.01	9.31	7.97	7.04	6.55	6.46	6.67	6.97	7.14	6.92	6.17	4.87	3.17	1.33	-0.44	-2.03	-3.49	-5	-6.72	-8.74	-11.02	-13.42	-15.68	-17.47	-18.41	-18.1	-16.24	-12.73	-7.79	-1.93	4.13	9.65	14.06	17.07	18.69	19.13	18.74	17.83	16.66	15.36	13.99	12.52	11	9.52	8.22	7.25	6.61	6.17	5.71	5.04	4.05	2.81	1.43	0.02	-1.4	-2.91	-4.57	-6.43	-8.46	-10.63	-12.87	-15.03	-16.91	-18.16	-18.35	-17.13	-14.33	-10.11	-4.88	0.76	6.19	10.92	14.63	17.22	18.7	19.2	18.85	17.83	16.32	14.53	12.67	10.98	9.61	8.6	7.91	7.35	6.74	6.01
-18.41	-18.1	-16.24	-12.73	-7.79	-1.93	4.13	9.65	14.06	17.07	18.69	19.13	18.74	17.83	16.66	15.36	13.99	12.52	11	9.52	8.22	7.25	6.61	6.17	5.71	5.04	4.05	2.81	1.43	0.02	-1.4	-2.91	-4.57	-6.43	-8.46	-10.63	-12.87	-15.03	-16.91	-18.16	-18.35	-17.13	-14.33	-10.11	-4.88	0.76	6.19	10.92	14.63	17.22	18.7	19.2	18.85	17.83	16.32	14.53	12.67	10.98	9.61	8.6	7.91	7.35	6.74	6.01	5.16	4.28	3.45	2.67	1.8	0.68	-0.81	-2.67	-4.76	-6.94	-9.14	-11.34	-13.58	-15.78	-17.69	-18.85	-18.79	-17.14	-13.86	-9.24	-3.85	1.67	6.73	10.93	14.09	16.19	17.3	17.57	17.15	16.18	14.81	13.21	11.52	9.91	8.53	7.51	6.89	6.6	6.46	6.23	5.69	4.7	3.3	1.68	0.04	-1.49	-2.89	-4.28	-5.81	-7.57	-9.56	-11.7	-13.84	-15.79	-17.25	-17.84	-17.11	-14.76	-10.77	-5.46	0.46	6.19	11.03	14.59
5.16	4.28	3.45	2.67	1.8	0.68	-0.81	-2.67	-4.76	-6.94	-9.14	-11.34	-13.58	-15.78	-17.69	-18.85	-18.79	-17.14	-13.86	-9.24	-3.85	1.67	6.73	10.93	14.09	16.19	17.3	17.57	17.15	16.18	14.81	13.21	11.52	9.91	8.53	7.51	6.89	6.6	6.46	6.23	5.69	4.7	3.3	1.68	0.04	-1.49	-2.89	-4.28	-5.81	-7.57	-9.56	-11.7	-13.84	-15.79	-17.25	-17.84	-17.11	-14.76	-10.77	-5.46	0.46	6.19	11.03	14.59	16.76	17.66	17.49	16.43	14.67	12.48	10.18	8.1	6.5	5.49	4.99	4.78	4.61	4.33	3.84	3.15	2.32	1.37	0.32	-0.82	-2.09	-3.51	-5.1	-6.88	-8.86	-11.04	-13.34	-15.59	-17.53	-18.81	-19.07	-17.99	-15.42	-11.47	-6.44	-0.88	4.61	9.51	13.41	16.09	17.5	17.72	17	15.61	13.91	12.2	10.7	9.49	8.55	7.77	7.04	6.25	5.32	4.2	2.9	1.52	0.19	-0.91	-1.72	-2.29	-2.83	-3.59	-4.8	-6.56
16.76	17.66	17.49	16.43	14.67	12.48	10.18	8.1	6.5	5.49	4.99	4.78	4.61	4.33	3.84	3.15	2.32	1.37	0.32	-0.82	-2.09	-3.51	-5.1	-6.88	-8.86	-11.04	-13.34	-15.59	-17.53	-18.81	-19.07	-17.99	-15.42	-11.47	-6.44	-0.88	4.61	9.51	13.41	16.09	17.5	17.72	17	15.61	13.91	12.2	10.7	9.49	8.55	7.77	7.04	6.25	5.32	4.2	2.9	1.52	0.19	-0.91	-1.72	-2.29	-2.83	-3.59	-4.8	-6.56	-8.85	-11.52	-14.32	-16.91	-18.84	-19.64	-18.89	-16.41	-12.38	-7.34	-1.98	3	7.14	10.23	12.3	13.4	13.6	12.94	11.52	9.57	7.46	5.57	4.19	3.41	3.11	3.06	3.01	2.78	2.29	1.51	0.5	-0.66	-1.87	-3.07	-4.21	-5.35	-6.62	-8.16	-10.04	-12.16	-14.28	-16.02	-17	-16.91	-15.56	-12.94	-9.22	-4.68	0.21	4.93	8.93	11.82	13.43	13.83	13.31	12.19	10.73	9.08	7.31	5.51	3.86	2.52	1.65	1.29
-8.85	-11.52	-14.32	-16.91	-18.84	-19.64	-18.89	-16.41	-12.38	-7.34	-1.98	3	7.14	10.23	12.3	13.4	13.6	12.94	11.52	9.57	7.46	5.57	4.19	3.41	3.11	3.06	3.01	2.78	2.29	1.51	0.5	-0.66	-1.87	-3.07	-4.21	-5.35	-6.62	-8.16	-10.04	-12.16	-14.28	-16.02	-17	-16.91	-15.56	-12.94	-9.22	-4.68	0.21	4.93	8.93	11.82	13.43	13.83	13.31	12.19	10.73	9.08	7.31	5.51	3.86	2.52	1.65	1.29	1.31	1.46	1.48	1.18	0.52	-0.41	-1.5	-2.64	-3.85	-5.2	-6.81	-8.73	-10.9	-13.11	-15.03	-16.3	-16.59	-15.7	-13.57	-10.33	-6.27	-1.8	2.66	6.69	9.99	12.36	13.74	14.12	13.61	12.35	10.51	8.33	6.09	4.04	2.4	1.29	0.65	0.33	0.14	-0.09	-0.43	-0.84	-1.25	-1.67	-2.18	-2.95	-4.12	-5.76	-7.82	-10.1	-12.36	-14.26	-15.41	-15.42	-14	-11.11	-7.03	-2.31	2.38	6.49	9.68	11.87	13.12	13.51
1.31	1.46	1.48	1.18	0.52	-0.41	-1.5	-2.64	-3.85	-5.2	-6.81	-8.73	-10.9	-13.11	-15.03	-16.3	-16.59	-15.7	-13.57	-10.33	-6.27	-1.8	2.66	6.69	9.99	12.36	13.74	14.12	13.61	12.35	10.51	8.33	6.09	4.04	2.4	1.29	0.65	0.33	0.14	-0.09	-0.43	-0.84	-1.25	-1.67	-2.18	-2.95	-4.12	-5.76	-7.82	-10.1	-12.36	-14.26	-15.41	-15.42	-14	-11.11	-7.03	-2.31	2.38	6.49	9.68	11.87	13.12	13.51	13.09	11.95	10.24	8.22	6.2	4.47	3.18	2.34	1.8	1.34	0.8	0.06	-0.85	-1.83	-2.73	-3.48	-4.13	-4.83	-5.79	-7.13	-8.85	-10.79	-12.67	-14.15	-14.87	-14.5	-12.85	-9.9	-5.86	-1.22	3.43	7.5	10.55	12.4	13.07	12.71	11.54	9.82	7.79	5.74	3.93	2.55	1.62	1.05	0.65	0.27	-0.17	-0.66	-1.16	-1.65	-2.17	-2.74	-3.39	-4.13	-5	-6.09	-7.55	-9.42	-11.57	-13.62	-15.04	-15.32	-14.17	-11.62
13.09	11.95	10.24	8.22	6.2	4.47	3.18	2.34	1.8	1.34	0.8	0.06	-0.85	-1.83	-2.73	-3.48	-4.13	-4.83	-5.79	-7.13	-8.85	-10.79	-12.67	-14.15	-14.87	-14.5	-12.85	-9.9	-5.86	-1.22	3.43	7.5	10.55	12.4	13.07	12.71	11.54	9.82	7.79	5.74	3.93	2.55	1.62	1.05	0.65	0.27	-0.17	-0.66	-1.16	-1.65	-2.17	-2.74	-3.39	-4.13	-5	-6.09	-7.55	-9.42	-11.57	-13.62	-15.04	-15.32	-14.17	-11.62	-7.97	-3.69	0.77	5.06	8.96	12.29	14.85	16.43	16.87	16.15	14.47	12.2	9.8	7.69	6.13	5.18	4.74	4.62	4.61	4.5	4.13	3.4	2.31	0.94	-0.57	-2.13	-3.74	-5.46	-7.39	-9.57	-11.97	-14.39	-16.51	-17.96	-18.36	-17.43	-15.1	-11.49	-6.93	-1.93	2.97	7.29	10.66	12.88	13.91	13.84	12.87	11.26	9.31	7.3	5.44	3.93	2.87	2.29	2.13	2.24	2.39	2.39	2.12	1.57	0.86	0.06	-0.81	-1.85
-7.97	-3.69	0.77	5.06	8.96	12.29	14.85	16.43	16.87	16.15	14.47	12.2	9.8	7.69	6.13	5.18	4.74	4.62	4.61	4.5	4.13	3.4	2.31	0.94	-0.57	-2.13	-3.74	-5.46	-7.39	-9.57	-11.97	-14.39	-16.51	-17.96	-18.36	-17.43	-15.1	-11.49	-6.93	-1.93	2.97	7.29	10.66	12.88	13.91	13.84	12.87	11.26	9.31	7.3	5.44	3.93	2.87	2.29	2.13	2.24	2.39	2.39	2.12	1.57	0.86	0.06	-0.81	-1.85	-3.21	-5	-7.2	-9.63	-12.05	-14.16	-15.73	-16.52	-16.31	-14.91	-12.19	-8.24	-3.36	1.9	6.93	11.16	14.23	15.97	16.43	15.79	14.35	12.47	10.5	8.71	7.29	6.3	5.68	5.31	5.03	4.71	4.25	3.62	2.9	2.2	1.62	1.18	0.79	0.25	-0.62	-1.95	-3.73	-5.87	-8.23	-10.67	-12.99	-14.91	-16.05	-16	-14.43	-11.33	-6.96	-1.9	3.17	7.62	11.04	13.26	14.31	14.36	13.61	12.28	10.58	8.7	6.81	5.08
-3.21	-5	-7.2	-9.63	-12.05	-14.16	-15.73	-16.52	-16.31	-14.91	-12.19	-8.24	-3.36	1.9	6.93	11.16	14.23	15.97	16.43	15.79	14.35	12.47	10.5	8.71	7.29	6.3	5.68	5.31	5.03	4.71	4.25	3.62	2.9	2.2	1.62	1.18	0.79	0.25	-0.62	-1.95	-3.73	-5.87	-8.23	-10.67	-12.99	-14.91	-16.05	-16	-14.43	-11.33	-6.96	-1.9	3.17	7.62	11.04	13.26	14.31	14.36	13.61	12.28	10.58	8.7	6.81	5.08	3.69	2.78	2.4	2.49	2.88	3.28	3.45	3.27	2.79	2.16	1.54	1.01	0.47	-0.24	-1.24	-2.53	-4.02	-5.6	-7.25	-9.07	-11.19	-13.53	-15.73	-17.18	-17.24	-15.52	-12.06	-7.42	-2.38	2.34	6.25	9.17	11.11	12.11	12.22	11.47	10.02	8.14	6.15	4.34	2.87	1.77	0.97	0.39	-0.06	-0.49	-1.06	-1.92	-3.19	-4.84	-6.66	-8.42	-9.91	-11.09	-12.09	-13.17	-14.55	-16.39	-18.66	-21.29	-24.09	-26.89	-29.46	-31.5
3.69	2.78	2.4	2.49	2.88	3.28	3.45	3.27	2.79	2.16	1.54	1.01	0.47	-0.24	-1.24	-2.53	-4.02	-5.6	-7.25	-9.07	-11.19	-13.53	-15.73	-17.18	-17.24	-15.52	-12.06	-7.42	-2.38	2.34	6.25	9.17	11.11	12.11	12.22	11.47	10.02	8.14	6.15	4.34	2.87	1.77	0.97	0.39	-0.06	-0.49	-1.06	-1.92	-3.19	-4.84	-6.66	-8.42	-9.91	-11.09	-12.09	-13.17	-14.55	-16.39	-18.66	-21.29	-24.09	-26.89	-29.46	-31.5	-32.64	-32.46	-30.66	-27.08	-21.85	-15.28	-7.86	-0.08	7.61	14.81	21.24	26.68	31.05	34.41	36.93	38.86	40.4	41.65	42.57	43	42.82	41.99	40.61	38.87	36.96	34.98	32.9	30.67	28.18	25.35	22.16	18.63	14.79	10.67	6.33	1.87	-2.64	-7.11	-11.57	-16.05	-20.56	-24.96	-28.89	-31.84	-33.31	-32.99	-30.93	-27.49	-23.25	-18.83	-14.7	-11.12	-8.21	-5.99	-4.45	-3.53	-3.14	-3.14	-3.36	-3.62	-3.79	-3.75	-3.39	-2.65
-32.64	-32.46	-30.66	-27.08	-21.85	-15.28	-7.86	-0.08	7.61	14.81	21.24	26.68	31.05	34.41	36.93	38.86	40.4	41.65	42.57	43	42.82	41.99	40.61	38.87	36.96	34.98	32.9	30.67	28.18	25.35	22.16	18.63	14.79	10.67	6.33	1.87	-2.64	-7.11	-11.57	-16.05	-20.56	-24.96	-28.89	-31.84	-33.31	-32.99	-30.93	-27.49	-23.25	-18.83	-14.7	-11.12	-8.21	-5.99	-4.45	-3.53	-3.14	-3.14	-3.36	-3.62	-3.79	-3.75	-3.39	-2.65	-1.51	-0.01	1.7	3.43	4.93	6.05	6.66	6.73	6.32	5.55	4.6	3.6	2.65	1.74	0.79	-0.39	-1.96	-3.99	-6.42	-8.98	-11.27	-12.83	-13.29	-12.46	-10.42	-7.45	-3.94	-0.29	3.17	6.1	8.23	9.34	9.34	8.32	6.53	4.33	2.03	-0.22	-2.35	-4.37	-6.21	-7.73	-8.77	-9.25	-9.3	-9.17	-9.17	-9.51	-10.24	-11.31	-12.62	-14.14	-15.88	-17.8	-19.81	-21.72	-23.41	-24.9	-26.44	-28.32	-30.66	-33.21	-35.33	-36.26
-1.51	-0.01	1.7	3.43	4.93	6.05	6.66	6.73	6.32	5.55	4.6	3.6	2.65	1.74	0.79	-0.39	-1.96	-3.99	-6.42	-8.98	-11.27	-12.83	-13.29	-12.46	-10.42	-7.45	-3.94	-0.29	3.17	6.1	8.23	9.34	9.34	8.32	6.53	4.33	2.03	-0.22	-2.35	-4.37	-6.21	-7.73	-8.77	-9.25	-9.3	-9.17	-9.17	-9.51	-10.24	-11.31	-12.62	-14.14	-15.88	-17.8	-19.81	-21.72	-23.41	-24.9	-26.44	-28.32	-30.66	-33.21	-35.33	-36.26	-35.41	-32.62	-28.23	-22.95	-17.5	-12.46	-8.16	-4.69	-2.1	-0.36	0.56	0.79	0.54	0.06	-0.47	-0.97	-1.46	-1.99	-2.55	-3.01	-3.24	-3.11	-2.62	-1.9	-1.19	-0.69	-0.53	-0.72	-1.18	-1.8	-2.5	-3.27	-4.1	-5.05	-6.15	-7.46	-9.01	-10.76	-12.53	-13.95	-14.54	-13.84	-11.59	-7.86	-3.06	2.2	7.37	12.05	16.1	19.51	22.25	24.23	25.31	25.46	24.83	23.77	22.73	22.06	21.98	22.5	23.54	24.94	26.53	28.11
-35.41	-32.62	-28.23	-22.95	-17.5	-12.46	-8.16	-4.69	-2.1	-0.36	0.56	0.79	0.54	0.06	-0.47	-0.97	-1.46	-1.99	-2.55	-3.01	-3.24	-3.11	-2.62	-1.9	-1.19	-0.69	-0.53	-0.72	-1.18	-1.8	-2.5	-3.27	-4.1	-5.05	-6.15	-7.46	-9.01	-10.76	-12.53	-13.95	-14.54	-13.84	-11.59	-7.86	-3.06	2.2	7.37	12.05	16.1	19.51	22.25	24.23	25.31	25.46	24.83	23.77	22.73	22.06	21.98	22.5	23.54	24.94	26.53	28.11	29.47	30.41	30.79	30.55	29.78	28.62	27.21	25.58	23.65	21.23	18.11	14.18	9.49	4.27	-1.12	-6.24	-10.61	-13.82	-15.48	-15.38	-13.56	-10.29	-6.12	-1.72	2.32	5.59	7.9	9.21	9.55	8.98	7.56	5.52	3.22	1.1	-0.43	-1.15	-1.08	-0.42	0.55	1.58	2.51	3.26	3.78	4.01	3.92	3.49	2.78	1.85	0.78	-0.4	-1.77	-3.47	-5.65	-8.31	-11.3	-14.26	-16.7	-18.13	-18.2	-16.79	-14.03	-10.2	-5.65	-0.77
29.47	30.41	30.79	30.55	29.78	28.62	27.21	25.58	23.65	21.23	18.11	14.18	9.49	4.27	-1.12	-6.24	-10.61	-13.82	-15.48	-15.38	-13.56	-10.29	-6.12	-1.72	2.32	5.59	7.9	9.21	9.55	8.98	7.56	5.52	3.22	1.1	-0.43	-1.15	-1.08	-0.42	0.55	1.58	2.51	3.26	3.78	4.01	3.92	3.49	2.78	1.85	0.78	-0.4	-1.77	-3.47	-5.65	-8.31	-11.3	-14.26	-16.7	-18.13	-18.2	-16.79	-14.03	-10.2	-5.65	-0.77	4.08	8.53	12.24	14.93	16.46	16.86	16.32	15.12	13.6	12.08	10.78	9.84	9.29	9.09	9.13	9.29	9.45	9.51	9.41	9.08	8.46	7.52	6.22	4.59	2.74	0.83	-0.98	-2.58	-4.03	-5.5	-7.25	-9.43	-12.04	-14.82	-17.34	-19.09	-19.55	-18.39	-15.5	-11.02	-5.38	0.8	6.81	12	15.95	18.49	19.74	19.94	19.4	18.35	16.93	15.26	13.43	11.62	9.96	8.62	7.67	7.07	6.72	6.51	6.34	6.19	6.04	5.82
4.08	8.53	12.24	14.93	16.46	16.86	16.32	15.12	13.6	12.08	10.78	9.84	9.29	9.09	9.13	9.29	9.45	9.51	9.41	9.08	8.46	7.52	6.22	4.59	2.74	0.83	-0.98	-2.58	-4.03	-5.5	-7.25	-9.43	-12.04	-14.82	-17.34	-19.09	-19.55	-18.39	-15.5	-11.02	-5.38	0.8	6.81	12	15.95	18.49	19.74	19.94	19.4	18.35	16.93	15.26	13.43	11.62	9.96	8.62	7.67	7.07	6.72	6.51	6.34	6.19	6.04	5.82	5.31	4.28	2.53	0.08	-2.77	-5.58	-7.97	-9.74	-11	-12.09	-13.35	-14.94	-16.76	-18.48	-19.67	-19.92	-18.96	-16.68	-13.17	-8.67	-3.62	1.49	6.18	10.06	12.87	14.5	14.96	14.35	12.91	10.97	8.95	7.21	6.02	5.45	5.46	5.89	6.57	7.3	7.86	8.03	7.59	6.47	4.74	2.64	0.45	-1.63	-3.5	-5.21	-6.85	-8.51	-10.23	-12.04	-14.01	-16.19	-18.57	-20.98	-23.02	-24.14	-23.8	-21.71	-17.91	-12.85	-7.21	-1.71
5.31	4.28	2.53	0.08	-2.77	-5.58	-7.97	-9.74	-11	-12.09	-13.35	-14.94	-16.76	-18.48	-19.67	-19.92	-18.96	-16.68	-13.17	-8.67	-3.62	1.49	6.18	10.06	12.87	14.5	14.96	14.35	12.91	10.97	8.95	7.21	6.02	5.45	5.46	5.89	6.57	7.3	7.86	8.03	7.59	6.47	4.74	2.64	0.45	-1.63	-3.5	-5.21	-6.85	-8.51	-10.23	-12.04	-14.01	-16.19	-18.57	-20.98	-23.02	-24.14	-23.8	-21.71	-17.91	-12.85	-7.21	-1.71	3.08	6.79	9.27	10.53	10.69	10.01	8.8	7.46	6.31	5.56	5.24	5.23	5.37	5.52	5.64	5.74	5.9	6.16	6.54	7.01	7.46	7.71	7.59	6.95	5.73	4.01	1.95	-0.28	-2.54	-4.77	-6.96	-9.14	-11.26	-13.16	-14.57	-15.09	-14.38	-12.25	-8.78	-4.31	0.63	5.48	9.77	13.21	15.66	17.07	17.49	17.01	15.83	14.19	12.36	10.55	8.88	7.46	6.37	5.71	5.49	5.63	5.9	6.01	5.65	4.61	2.87	0.55
3.08	6.79	9.27	10.53	10.69	10.01	8.8	7.46	6.31	5.56	5.24	5.23	5.37	5.52	5.64	5.74	5.9	6.16	6.54	7.01	7.46	7.71	7.59	6.95	5.73	4.01	1.95	-0.28	-2.54	-4.77	-6.96	-9.14	-11.26	-13.16	-14.57	-15.09	-14.38	-12.25	-8.78	-4.31	0.63	5.48	9.77	13.21	15.66	17.07	17.49	17.01	15.83	14.19	12.36	10.55	8.88	7.46	6.37	5.71	5.49	5.63	5.9	6.01	5.65	4.61	2.87	0.55	-2.09	-4.75	-7.16	-9.14	-10.58	-11.53	-12.16	-12.72	-13.53	-14.77	-16.51	-18.56	-20.49	-21.75	-21.76	-20.15	-16.88	-12.27	-6.89	-1.38	3.66	7.79	10.74	12.42	12.88	12.33	11.05	9.37	7.58	5.9	4.46	3.32	2.51	2.05	1.93	2.07	2.34	2.59	2.7	2.6	2.3	1.84	1.19	0.35	-0.66	-1.79	-2.91	-3.91	-4.79	-5.67	-6.8	-8.42	-10.61	-13.18	-15.72	-17.63	-18.36	-17.55	-15.08	-11.13	-6.14	-0.67	4.61	9.1
-2.09	-4.75	-7.16	-9.14	-10.58	-11.53	-12.16	-12.72	-13.53	-14.77	-16.51	-18.56	-20.49	-21.75	-21.76	-20.15	-16.88	-12.27	-6.89	-1.38	3.66	7.79	10.74	12.42	12.88	12.33	11.05	9.37	7.58	5.9	4.46	3.32	2.51	2.05	1.93	2.07	2.34	2.59	2.7	2.6	2.3	1.84	1.19	0.35	-0.66	-1.79	-2.91	-3.91	-4.79	-5.67	-6.8	-8.42	-10.61	-13.18	-15.72	-17.63	-18.36	-17.55	-15.08	-11.13	-6.14	-0.67	4.61	9.1	12.36	14.2	14.7	14.16	12.94	11.42	9.84	8.33	6.91	5.58	4.33	3.16	2.08	1.06	0.02	-1.1	-2.33	-3.66	-5.02	-6.36	-7.64	-8.84	-9.97	-10.98	-11.84	-12.47	-12.89	-13.18	-13.51	-14.12	-15.1	-16.35	-17.53	-18.14	-17.7	-15.87	-12.56	-7.97	-2.51	3.3	8.9	13.84	17.72	20.33	21.64	21.75	20.95	19.6	18.06	16.62	15.41	14.47	13.74	13.14	12.66	12.27	11.97	11.72	11.42	10.94	10.17	9.02	7.47	5.59
12.36	14.2	14.7	14.16	12.94	11.42	9.84	8.33	6.91	5.58	4.33	3.16	2.08	1.06	0.02	-1.1	-2.33	-3.66	-5.02	-6.36	-7.64	-8.84	-9.97	-10.98	-11.84	-12.47	-12.89	-13.18	-13.51	-14.12	-15.1	-16.35	-17.53	-18.14	-17.7	-15.87	-12.56	-7.97	-2.51	3.3	8.9	13.84	17.72	20.33	21.64	21.75	20.95	19.6	18.06	16.62	15.41	14.47	13.74	13.14	12.66	12.27	11.97	11.72	11.42	10.94	10.17	9.02	7.47	5.59	3.48	1.29	-0.9	-3.01	-5.11	-7.26	-9.55	-11.99	-14.56	-17.16	-19.63	-21.74	-23.18	-23.54	-22.46	-19.73	-15.45	-10.05	-4.22	1.36	6.09	9.68	12.03	13.23	13.43	12.8	11.55	9.91	8.14	6.54	5.33	4.62	4.36	4.39	4.48	4.46	4.25	3.87	3.37	2.77	2.01	1	-0.32	-1.92	-3.68	-5.41	-7.01	-8.46	-9.9	-11.51	-13.45	-15.77	-18.35	-20.84	-22.74	-23.5	-22.69	-20.13	-15.97	-10.67	-4.89	0.71	5.59	9.4
3.48	1.29	-0.9	-3.01	-5.11	-7.26	-9.55	-11.99	-14.56	-17.16	-19.63	-21.74	-23.18	-23.54	-22.46	-19.73	-15.45	-10.05	-4.22	1.36	6.09	9.68	12.03	13.23	13.43	12.8	11.55	9.91	8.14	6.54	5.33	4.62	4.36	4.39	4.48	4.46	4.25	3.87	3.37	2.77	2.01	1	-0.32	-1.92	-3.68	-5.41	-7.01	-8.46	-9.9	-11.51	-13.45	-15.77	-18.35	-20.84	-22.74	-23.5	-22.69	-20.13	-15.97	-10.67	-4.89	0.71	5.59	9.4	12.02	13.47	13.89	13.43	12.32	10.77	9.01	7.25	5.66	4.34	3.3	2.47	1.75	1.06	0.41	-0.17	-0.67	-1.15	-1.79	-2.78	-4.26	-6.22	-8.53	-11	-13.5	-15.94	-18.31	-20.63	-22.93	-25.22	-27.49	-29.66	-31.47	-32.5	-32.3	-30.58	-27.4	-23.2	-18.7	-14.61	-11.42	-9.27	-8.05	-7.52	-7.45	-7.61	-7.72	-7.45	-6.42	-4.39	-1.4	2.22	5.97	9.43	12.38	14.87	17.11	19.31	21.5	23.54	25.19	26.26	26.65	26.4
12.02	13.47	13.89	13.43	12.32	10.77	9.01	7.25	5.66	4.34	3.3	2.47	1.75	1.06	0.41	-0.17	-0.67	-1.15	-1.79	-2.78	-4.26	-6.22	-8.53	-11	-13.5	-15.94	-18.31	-20.63	-22.93	-25.22	-27.49	-29.66	-31.47	-32.5	-32.3	-30.58	-27.4	-23.2	-18.7	-14.61	-11.42	-9.27	-8.05	-7.52	-7.45	-7.61	-7.72	-7.45	-6.42	-4.39	-1.4	2.22	5.97	9.43	12.38	14.87	17.11	19.31	21.5	23.54	25.19	26.26	26.65	26.4	25.58	24.26	22.55	20.53	18.37	16.2	14.08	11.89	9.39	6.31	2.63	-1.36	-5	-7.5	-8.21	-6.9	-3.86	0.2	4.45	8.12	10.74	12.14	12.35	11.45	9.62	7.08	4.14	1.24	-1.18	-2.71	-3.1	-2.31	-0.47	2.18	5.34	8.72	12.14	15.43	18.53	21.37	23.87	25.87	27.25	27.95	27.98	27.49	26.61	25.46	23.98	22.04	19.46	16.17	12.19	7.71	2.95	-1.86	-6.45	-10.47	-13.49	-15.07	-14.91	-12.98	-9.62	-5.43
25.58	24.26	22.55	20.53	18.37	16.2	14.08	11.89	9.39	6.31	2.63	-1.36	-5	-7.5	-8.21	-6.9	-3.86	0.2	4.45	8.12	10.74	12.14	12.35	11.45	9.62	7.08	4.14	1.24	-1.18	-2.71	-3.1	-2.31	-0.47	2.18	5.34	8.72	12.14	15.43	18.53	21.37	23.87	25.87	27.25	27.95	27.98	27.49	26.61	25.46	23.98	22.04	19.46	16.17	12.19	7.71	2.95	-1.86	-6.45	-10.47	-13.49	-15.07	-14.91	-12.98	-9.62	-5.43	-1.07	2.91	6.19	8.67	10.36	11.29	11.4	10.7	9.26	7.3	5.2	3.3	1.89	1.02	0.57	0.28	-0.13	-0.84	-1.88	-3.12	-4.35	-5.41	-6.26	-6.98	-7.72	-8.65	-9.83	-11.24	-12.78	-14.24	-15.46	-16.4	-17.14	-17.93	-19.03	-20.63	-22.69	-24.91	-26.8	-27.76	-27.34	-25.28	-21.56	-16.47	-10.42	-4.03	2.11	7.45	11.61	14.45	16.04	16.58	16.33	15.58	14.57	13.51	12.58	11.86	11.31	10.83	10.28	9.58	8.75	7.9
-1.07	2.91	6.19	8.67	10.36	11.29	11.4	10.7	9.26	7.3	5.2	3.3	1.89	1.02	0.57	0.28	-0.13	-0.84	-1.88	-3.12	-4.35	-5.41	-6.26	-6.98	-7.72	-8.65	-9.83	-11.24	-12.78	-14.24	-15.46	-16.4	-17.14	-17.93	-19.03	-20.63	-22.69	-24.91	-26.8	-27.76	-27.34	-25.28	-21.56	-16.47	-10.42	-4.03	2.11	7.45	11.61	14.45	16.04	16.58	16.33	15.58	14.57	13.51	12.58	11.86	11.31	10.83	10.28	9.58	8.75	7.9	7.16	6.59	6.15	5.64	4.84	3.59	1.85	-0.29	-2.6	-4.86	-6.87	-8.62	-10.2	-11.82	-13.69	-15.92	-18.43	-20.95	-23.02	-24.14	-23.88	-21.96	-18.4	-13.52	-7.86	-2.05	3.33	7.86	11.32	13.71	15.11	15.61	15.29	14.25	12.67	10.81	8.98	7.49	6.49	5.92	5.61	5.3	4.8	4.04	3.05	1.89	0.59	-0.88	-2.54	-4.38	-6.27	-8.08	-9.68	-11.07	-12.35	-13.7	-15.31	-17.27	-19.53	-21.89	-23.96	-25.27	-25.26	-23.46
7.16	6.59	6.15	5.64	4.84	3.59	1.85	-0.29	-2.6	-4.86	-6.87	-8.62	-10.2	-11.82	-13.69	-15.92	-18.43	-20.95	-23.02	-24.14	-23.88	-21.96	-18.4	-13.52	-7.86	-2.05	3.33	7.86	11.32	13.71	15.11	15.61	15.29	14.25	12.67	10.81	8.98	7.49	6.49	5.92	5.61	5.3	4.8	4.04	3.05	1.89	0.59	-0.88	-2.54	-4.38	-6.27	-8.08	-9.68	-11.07	-12.35	-13.7	-15.31	-17.27	-19.53	-21.89	-23.96	-25.27	-25.26	-23.46	-19.65	-13.96	-6.94	0.61	7.8	13.89	18.42	21.25	22.51	22.5	21.6	20.21	18.63	17.08	15.68	14.48	13.51	12.8	12.36	12.09	11.79	11.19	10.08	8.46	6.5	4.52	2.73	1.18	-0.27	-1.88	-3.8	-6.02	-8.4	-10.77	-13.09	-15.5	-18.11	-20.89	-23.5	-25.29	-25.49	-23.53	-19.32	-13.32	-6.4	0.47	6.48	11.23	14.64	16.82	17.92	18.01	17.14	15.47	13.25	10.89	8.76	7.14	6.15	5.73	5.75	6.02	6.34	6.51
-19.65	-13.96	-6.94	0.61	7.8	13.89	18.42	21.25	22.51	22.5	21.6	20.21	18.63	17.08	15.68	14.48	13.51	12.8	12.36	12.09	11.79	11.19	10.08	8.46	6.5	4.52	2.73	1.18	-0.27	-1.88	-3.8	-6.02	-8.4	-10.77	-13.09	-15.5	-18.11	-20.89	-23.5	-25.29	-25.49	-23.53	-19.32	-13.32	-6.4	0.47	6.48	11.23	14.64	16.82	17.92	18.01	17.14	15.47	13.25	10.89	8.76	7.14	6.15	5.73	5.75	6.02	6.34	6.51	6.36	5.78	4.73	3.29	1.59	-0.19	-1.95	-3.64	-5.36	-7.25	-9.51	-12.3	-15.66	-19.48	-23.4	-26.84	-29.12	-29.57	-27.73	-23.49	-17.23	-9.69	-1.86	5.34	11.27	15.66	18.57	20.25	20.95	20.86	20.09	18.77	17.08	15.27	13.51	11.89	10.33	8.64	6.62	4.16	1.26	-1.94	-5.25	-8.43	-11.31	-13.76	-15.8	-17.54	-19.21	-21	-23.01	-25.24	-27.65	-30.17	-32.81	-35.54	-38.2	-40.39	-41.51	-40.91	-38.11	-33.06	-26.11	-17.94
6.36	5.78	4.73	3.29	1.59	-0.19	-1.95	-3.64	-5.36	-7.25	-9.51	-12.3	-15.66	-19.48	-23.4	-26.84	-29.12	-29.57	-27.73	-23.49	-17.23	-9.69	-1.86	5.34	11.27	15.66	18.57	20.25	20.95	20.86	20.09	18.77	17.08	15.27	13.51	11.89	10.33	8.64	6.62	4.16	1.26	-1.94	-5.25	-8.43	-11.31	-13.76	-15.8	-17.54	-19.21	-21	-23.01	-25.24	-27.65	-30.17	-32.81	-35.54	-38.2	-40.39	-41.51	-40.91	-38.11	-33.06	-26.11	-17.94	-9.35	-1.01	6.57	13.02	18.12	21.71	23.79	24.5	24.14	23.09	21.68	20.13	18.5	16.81	15.11	13.52	12.2	11.21	10.47	9.8	8.96	7.83	6.48	5.11	3.93	3	2.19	1.19	-0.32	-2.49	-5.28	-8.56	-12.12	-15.83	-19.52	-22.89	-25.43	-26.44	-25.3	-21.72	-15.97	-8.89	-1.58	4.9	9.95	13.44	15.64	16.98	17.78	18.18	18.18	17.75	16.93	15.88	14.83	13.98	13.45	13.3	13.48	13.87	14.29	14.48	14.17	13.15
-9.35	-1.01	6.57	13.02	18.12	21.71	23.79	24.5	24.14	23.09	21.68	20.13	18.5	16.81	15.11	13.52	12.2	11.21	10.47	9.8	8.96	7.83	6.48	5.11	3.93	3	2.19	1.19	-0.32	-2.49	-5.28	-8.56	-12.12	-15.83	-19.52	-22.89	-25.43	-26.44	-25.3	-21.72	-15.97	-8.89	-1.58	4.9	9.95	13.44	15.64	16.98	17.78	18.18	18.18	17.75	16.93	15.88	14.83	13.98	13.45	13.3	13.48	13.87	14.29	14.48	14.17	13.15	11.3	8.7	5.56	2.15	-1.28	-4.6	-7.77	-10.86	-13.96	-17.08	-20.08	-22.72	-24.59	-25.24	-24.24	-21.36	-16.64	-10.51	-3.62	3.2	9.26	14.06	17.43	19.45	20.31	20.19	19.24	17.6	15.48	13.14	10.9	9	7.56	6.53	5.77	5.11	4.43	3.64	2.74	1.74	0.65	-0.43	-1.43	-2.28	-3	-3.65	-4.39	-5.34	-6.58	-8.15	-9.97	-11.97	-13.89	-15.36	-15.78	-14.54	-11.23	-5.88	0.91	8.1	14.6	19.59	22.8	24.42
11.3	8.7	5.56	2.15	-1.28	-4.6	-7.77	-10.86	-13.96	-17.08	-20.08	-22.72	-24.59	-25.24	-24.24	-21.36	-16.64	-10.51	-3.62	3.2	9.26	14.06	17.43	19.45	20.31	20.19	19.24	17.6	15.48	13.14	10.9	9	7.56	6.53	5.77	5.11	4.43	3.64	2.74	1.74	0.65	-0.43	-1.43	-2.28	-3	-3.65	-4.39	-5.34	-6.58	-8.15	-9.97	-11.97	-13.89	-15.36	-15.78	-14.54	-11.23	-5.88	0.91	8.1	14.6	19.59	22.8	24.42	24.91	24.68	23.9	22.59	20.74	18.45	16	13.75	11.97	10.72	9.85	9.16	8.49	7.75	6.97	6.18	5.37	4.48	3.44	2.18	0.72	-0.9	-2.61	-4.38	-6.24	-8.31	-10.71	-13.43	-16.32	-18.97	-20.77	-21.07	-19.39	-15.63	-10.13	-3.64	2.88	8.56	12.86	15.63	17.05	17.48	17.24	16.53	15.46	14.08	12.53	11.02	9.79	8.98	8.57	8.33	7.97	7.28	6.21	4.9	3.55	2.3	1.13	-0.05	-1.4	-3.01	-4.85	-6.88
24.91	24.68	23.9	22.59	20.74	18.45	16	13.75	11.97	10.72	9.85	9.16	8.49	7.75	6.97	6.18	5.37	4.48	3.44	2.18	0.72	-0.9	-2.61	-4.38	-6.24	-8.31	-10.71	-13.43	-16.32	-18.97	-20.77	-21.07	-19.39	-15.63	-10.13	-3.64	2.88	8.56	12.86	15.63	17.05	17.48	17.24	16.53	15.46	14.08	12.53	11.02	9.79	8.98	8.57	8.33	7.97	7.28	6.21	4.9	3.55	2.3	1.13	-0.05	-1.4	-3.01	-4.85	-6.88	-9.04	-11.33	-13.78	-16.4	-19.08	-21.54	-23.43	-24.35	-23.98	-22.12	-18.77	-14.16	-8.69	-2.94	2.49	7.07	10.46	12.53	13.37	13.17	12.15	10.51	8.46	6.2	4	2.11	0.76	0.06	-0.04	0.28	0.79	1.29	1.65	1.81	1.71	1.25	0.34	-1.02	-2.72	-4.52	-6.15	-7.45	-8.53	-9.68	-11.24	-13.39	-15.99	-18.6	-20.57	-21.29	-20.34	-17.62	-13.33	-7.94	-2.06	3.68	8.75	12.79	15.63	17.31	17.95	17.77	17	15.86
-9.04	-11.33	-13.78	-16.4	-19.08	-21.54	-23.43	-24.35	-23.98	-22.12	-18.77	-14.16	-8.69	-2.94	2.49	7.07	10.46	12.53	13.37	13.17	12.15	10.51	8.46	6.2	4	2.11	0.76	0.06	-0.04	0.28	0.79	1.29	1.65	1.81	1.71	1.25	0.34	-1.02	-2.72	-4.52	-6.15	-7.45	-8.53	-9.68	-11.24	-13.39	-15.99	-18.6	-20.57	-21.29	-20.34	-17.62	-13.33	-7.94	-2.06	3.68	8.75	12.79	15.63	17.31	17.95	17.77	17	15.86	14.56	13.31	12.26	11.49	10.98	10.65	10.4	10.13	9.79	9.38	8.87	8.24	7.42	6.28	4.78	2.94	0.88	-1.15	-2.94	-4.42	-5.73	-7.12	-8.9	-11.3	-14.28	-17.59	-20.73	-23.11	-24.11	-23.28	-20.46	-15.81	-9.87	-3.38	2.81	7.99	11.72	13.89	14.63	14.26	13.18	11.75	10.35	9.26	8.65	8.55	8.85	9.32	9.75	9.99	10.05	10.05	10.11	10.34	10.7	11.01	11.05	10.62	9.62	8.07	6.15	4.08	2.09	0.33
14.56	13.31	12.26	11.49	10.98	10.65	10.4	10.13	9.79	9.38	8.87	8.24	7.42	6.28	4.78	2.94	0.88	-1.15	-2.94	-4.42	-5.73	-7.12	-8.9	-11.3	-14.28	-17.59	-20.73	-23.11	-24.11	-23.28	-20.46	-15.81	-9.87	-3.38	2.81	7.99	11.72	13.89	14.63	14.26	13.18	11.75	10.35	9.26	8.65	8.55	8.85	9.32	9.75	9.99	10.05	10.05	10.11	10.34	10.7	11.01	11.05	10.62	9.62	8.07	6.15	4.08	2.09	0.33	-1.2	-2.58	-4.02	-5.73	-7.86	-10.39	-13.06	-15.32	-16.51	-16	-13.46	-9.02	-3.29	2.85	8.51	13.06	16.26	18.16	18.98	18.87	17.94	16.26	14.02	11.57	9.28	7.43	6.11	5.16	4.32	3.37	2.26	1.08	-0.04	-1.07	-2.15	-3.52	-5.35	-7.69	-10.33	-13.01	-15.48	-17.68	-19.71	-21.75	-23.9	-26.21	-28.56	-30.78	-32.62	-33.75	-33.73	-32.18	-28.83	-23.81	-17.62	-11.03	-4.82	0.47	4.63	7.76	10.02	11.56	12.37	12.46
-1.2	-2.58	-4.02	-5.73	-7.86	-10.39	-13.06	-15.32	-16.51	-16	-13.46	-9.02	-3.29	2.85	8.51	13.06	16.26	18.16	18.98	18.87	17.94	16.26	14.02	11.57	9.28	7.43	6.11	5.16	4.32	3.37	2.26	1.08	-0.04	-1.07	-2.15	-3.52	-5.35	-7.69	-10.33	-13.01	-15.48	-17.68	-19.71	-21.75	-23.9	-26.21	-28.56	-30.78	-32.62	-33.75	-33.73	-32.18	-28.83	-23.81	-17.62	-11.03	-4.82	0.47	4.63	7.76	10.02	11.56	12.37	12.46	11.9	10.92	9.81	8.83	8.11	7.62	7.26	6.95	6.68	6.53	6.54	6.69	6.86	6.87	6.61	6.09	5.38	4.58	3.65	2.46	0.78	-1.53	-4.43	-7.72	-11.03	-13.99	-16.22	-17.41	-17.29	-15.74	-12.8	-8.8	-4.26	0.22	4.13	7.19	9.33	10.64	11.24	11.21	10.6	9.48	8.04	6.55	5.36	4.71	4.69	5.21	6.01	6.8	7.32	7.42	7.04	6.25	5.18	3.96	2.73	1.63	0.68	-0.2	-1.17	-2.49	-4.37	-6.88
11.9	10.92	9.81	8.83	8.11	7.62	7.26	6.95	6.68	6.53	6.54	6.69	6.86	6.87	6.61	6.09	5.38	4.58	3.65	2.46	0.78	-1.53	-4.43	-7.72	-11.03	-13.99	-16.22	-17.41	-17.29	-15.74	-12.8	-8.8	-4.26	0.22	4.13	7.19	9.33	10.64	11.24	11.21	10.6	9.48	8.04	6.55	5.36	4.71	4.69	5.21	6.01	6.8	7.32	7.42	7.04	6.25	5.18	3.96	2.73	1.63	0.68	-0.2	-1.17	-2.49	-4.37	-6.88	-9.85	-12.88	-15.42	-16.91	-16.92	-15.27	-12.12	-7.88	-3.11	1.54	5.52	8.44	10.11	10.61	10.18	9.17	7.93	6.66	5.45	4.23	2.92	1.5	0.04	-1.28	-2.29	-2.9	-3.2	-3.35	-3.57	-4.02	-4.75	-5.77	-7.03	-8.46	-9.93	-11.34	-12.56	-13.57	-14.52	-15.64	-17.17	-19.18	-21.47	-23.54	-24.74	-24.55	-22.65	-19.09	-14.23	-8.57	-2.7	2.8	7.46	10.97	13.21	14.31	14.53	14.18	13.47	12.49	11.25	9.74	8.1	6.57
-9.85	-12.88	-15.42	-16.91	-16.92	-15.27	-12.12	-7.88	-3.11	1.54	5.52	8.44	10.11	10.61	10.18	9.17	7.93	6.66	5.45	4.23	2.92	1.5	0.04	-1.28	-2.29	-2.9	-3.2	-3.35	-3.57	-4.02	-4.75	-5.77	-7.03	-8.46	-9.93	-11.34	-12.56	-13.57	-14.52	-15.64	-17.17	-19.18	-21.47	-23.54	-24.74	-24.55	-22.65	-19.09	-14.23	-8.57	-2.7	2.8	7.46	10.97	13.21	14.31	14.53	14.18	13.47	12.49	11.25	9.74	8.1	6.57	5.41	4.77	4.62	4.73	4.79	4.54	3.89	2.9	1.7	0.48	-0.69	-1.8	-2.92	-4.11	-5.41	-6.86	-8.49	-10.37	-12.48	-14.65	-16.49	-17.44	-16.98	-14.82	-11.05	-6.13	-0.72	4.55	9.19	12.94	15.63	17.22	17.71	17.22	15.99	14.37	12.66	11.04	9.56	8.19	6.95	5.9	5.12	4.64	4.35	4.01	3.42	2.46	1.2	-0.18	-1.55	-2.92	-4.42	-6.21	-8.4	-10.92	-13.63	-16.32	-18.79	-20.78	-21.96	-21.9	-20.24	-16.85
5.41	4.77	4.62	4.73	4.79	4.54	3.89	2.9	1.7	0.48	-0.69	-1.8	-2.92	-4.11	-5.41	-6.86	-8.49	-10.37	-12.48	-14.65	-16.49	-17.44	-16.98	-14.82	-11.05	-6.13	-0.72	4.55	9.19	12.94	15.63	17.22	17.71	17.22	15.99	14.37	12.66	11.04	9.56	8.19	6.95	5.9	5.12	4.64	4.35	4.01	3.42	2.46	1.2	-0.18	-1.55	-2.92	-4.42	-6.21	-8.4	-10.92	-13.63	-16.32	-18.79	-20.78	-21.96	-21.9	-20.24	-16.85	-11.98	-6.2	-0.29	5.04	9.35	12.48	14.48	15.52	15.71	15.12	13.86	12.12	10.15	8.19	6.41	4.87	3.6	2.64	2.06	1.94	2.19	2.59	2.75	2.33	1.23	-0.33	-1.9	-3.04	-3.59	-3.8	-4.21	-5.39	-7.64	-10.89	-14.68	-18.41	-21.45	-23.3	-23.58	-22.05	-18.64	-13.54	-7.23	-0.43	6.05	11.53	15.61	18.2	19.52	19.87	19.57	18.87	17.92	16.81	15.58	14.29	13.03	11.92	11.07	10.55	10.31	10.16	9.83	9.08
-11.98	-6.2	-0.29	5.04	9.35	12.48	14.48	15.52	15.71	15.12	13.86	12.12	10.15	8.19	6.41	4.87	3.6	2.64	2.06	1.94	2.19	2.59	2.75	2.33	1.23	-0.33	-1.9	-3.04	-3.59	-3.8	-4.21	-5.39	-7.64	-10.89	-14.68	-18.41	-21.45	-23.3	-23.58	-22.05	-18.64	-13.54	-7.23	-0.43	6.05	11.53	15.61	18.2	19.52	19.87	19.57	18.87	17.92	16.81	15.58	14.29	13.03	11.92	11.07	10.55	10.31	10.16	9.83	9.08	7.78	6.02	4.04	2.08	0.41	-0.91	-1.91	-2.8	-3.82	-5.21	-7.1	-9.48	-12.12	-14.58	-16.29	-16.67	-15.33	-12.17	-7.43	-1.63	4.55	10.43	15.4	19.04	21.16	21.79	21.17	19.7	17.76	15.69	13.64	11.66	9.72	7.81	5.98	4.37	3.11	2.24	1.71	1.36	1.01	0.53	-0.1	-0.81	-1.54	-2.24	-2.93	-3.72	-4.73	-6.07	-7.82	-10.02	-12.61	-15.38	-17.92	-19.71	-20.18	-18.94	-15.96	-11.56	-6.41	-1.24	3.32	6.9
7.78	6.02	4.04	2.08	0.41	-0.91	-1.91	-2.8	-3.82	-5.21	-7.1	-9.48	-12.12	-14.58	-16.29	-16.67	-15.33	-12.17	-7.43	-1.63	4.55	10.43	15.4	19.04	21.16	21.79	21.17	19.7	17.76	15.69	13.64	11.66	9.72	7.81	5.98	4.37	3.11	2.24	1.71	1.36	1.01	0.53	-0.1	-0.81	-1.54	-2.24	-2.93	-3.72	-4.73	-6.07	-7.82	-10.02	-12.61	-15.38	-17.92	-19.71	-20.18	-18.94	-15.96	-11.56	-6.41	-1.24	3.32	6.9	9.43	11.05	11.95	12.31	12.19	11.61	10.58	9.2	7.66	6.19	5.01	4.27	3.97	4.02	4.27	4.52	4.63	4.47	3.97	3.14	2.06	0.84	-0.39	-1.57	-2.74	-4.02	-5.54	-7.39	-9.5	-11.68	-13.56	-14.74	-14.84	-13.56	-10.84	-6.84	-1.94	3.31	8.37	12.73	16.04	18.07	18.76	18.19	16.57	14.19	11.38	8.46	5.64	3.13	1.07	-0.43	-1.36	-1.79	-1.93	-2.04	-2.32	-2.83	-3.47	-4.11	-4.64	-5.11	-5.7	-6.61
9.43	11.05	11.95	12.31	12.19	11.61	10.58	9.2	7.66	6.19	5.01	4.27	3.97	4.02	4.27	4.52	4.63	4.47	3.97	3.14	2.06	0.84	-0.39	-1.57	-2.74	-4.02	-5.54	-7.39	-9.5	-11.68	-13.56	-14.74	-14.84	-13.56	-10.84	-6.84	-1.94	3.31	8.37	12.73	16.04	18.07	18.76	18.19	16.57	14.19	11.38	8.46	5.64	3.13	1.07	-0.43	-1.36	-1.79	-1.93	-2.04	-2.32	-2.83	-3.47	-4.11	-4.64	-5.11	-5.7	-6.61	-8.02	-9.98	-12.41	-15.17	-18.03	-20.69	-22.76	-23.78	-23.34	-21.25	-17.61	-12.8	-7.47	-2.29	2.21	5.74	8.21	9.67	10.23	10	9.09	7.68	6.02	4.41	3.12	2.29	1.97	2.05	2.36	2.71	2.98	3.13	3.19	3.24	3.27	3.22	2.93	2.25	1.07	-0.62	-2.74	-5.13	-7.57	-9.81	-11.58	-12.64	-12.74	-11.77	-9.72	-6.72	-3.06	0.89	4.66	7.84	10.12	11.34	11.57	10.98	9.8	8.23	6.45	4.63	2.95	1.57
-8.02	-9.98	-12.41	-15.17	-18.03	-20.69	-22.76	-23.78	-23.34	-21.25	-17.61	-12.8	-7.47	-2.29	2.21	5.74	8.21	9.67	10.23	10	9.09	7.68	6.02	4.41	3.12	2.29	1.97	2.05	2.36	2.71	2.98	3.13	3.19	3.24	3.27	3.22	2.93	2.25	1.07	-0.62	-2.74	-5.13	-7.57	-9.81	-11.58	-12.64	-12.74	-11.77	-9.72	-6.72	-3.06	0.89	4.66	7.84	10.12	11.34	11.57	10.98	9.8	8.23	6.45	4.63	2.95	1.57	0.59	-0	-0.32	-0.56	-0.82	-1.11	-1.37	-1.53	-1.61	-1.71	-2.01	-2.69	-3.87	-5.57	-7.8	-10.47	-13.4	-16.28	-18.65	-19.97	-19.76	-17.82	-14.27	-9.58	-4.41	0.58	4.88	8.16	10.3	11.27	11.2	10.29	8.84	7.22	5.7	4.47	3.55	2.87	2.34	1.92	1.63	1.49	1.47	1.46	1.29	0.81	-0.08	-1.38	-3.02	-4.88	-6.85	-8.81	-10.7	-12.45	-13.98	-15.13	-15.66	-15.28	-13.77	-11.04	-7.25	-2.73	2.02	6.49
0.59	-0	-0.32	-0.56	-0.82	-1.11	-1.37	-1.53	-1.61	-1.71	-2.01	-2.69	-3.87	-5.57	-7.8	-10.47	-13.4	-16.28	-18.65	-19.97	-19.76	-17.82	-14.27	-9.58	-4.41	0.58	4.88	8.16	10.3	11.27	11.2	10.29	8.84	7.22	5.7	4.47	3.55	2.87	2.34	1.92	1.63	1.49	1.47	1.46	1.29	0.81	-0.08	-1.38	-3.02	-4.88	-6.85	-8.81	-10.7	-12.45	-13.98	-15.13	-15.66	-15.28	-13.77	-11.04	-7.25	-2.73	2.02	6.49	10.23	12.94	14.44	14.73	13.9	12.16	9.78	7.07	4.4	2.1	0.47	-0.31	-0.27	0.31	1.06	1.57	1.6	1.15	0.35	-0.6	-1.59	-2.63	-3.76	-5.04	-6.41	-7.78	-9.11	-10.38	-11.61	-12.73	-13.51	-13.6	-12.61	-10.27	-6.57	-1.8	3.49	8.63	13	16.19	18.1	18.9	18.86	18.23	17.15	15.7	13.98	12.14	10.4	8.93	7.76	6.75	5.74	4.61	3.41	2.27	1.32	0.55	-0.18	-1.04	-2.16	-3.51	-5.02	-6.64
10.23	12.94	14.44	14.73	13.9	12.16	9.78	7.07	4.4	2.1	0.47	-0.31	-0.27	0.31	1.06	1.57	1.6	1.15	0.35	-0.6	-1.59	-2.63	-3.76	-5.04	-6.41	-7.78	-9.11	-10.38	-11.61	-12.73	-13.51	-13.6	-12.61	-10.27	-6.57	-1.8	3.49	8.63	13	16.19	18.1	18.9	18.86	18.23	17.15	15.7	13.98	12.14	10.4	8.93	7.76	6.75	5.74	4.61	3.41	2.27	1.32	0.55	-0.18	-1.04	-2.16	-3.51	-5.02	-6.64	-8.41	-10.4	-12.63	-14.87	-16.65	-17.39	-16.6	-14.1	-10.12	-5.22	-0.12	4.54	8.38	11.26	13.19	14.2	14.3	13.48	11.86	9.71	7.44	5.52	4.27	3.74	3.7	3.73	3.48	2.81	1.8	0.72	-0.22	-0.98	-1.67	-2.52	-3.65	-5.02	-6.47	-7.84	-9.14	-10.59	-12.49	-15	-17.95	-20.8	-22.86	-23.5	-22.43	-19.75	-15.85	-11.26	-6.46	-1.83	2.31	5.7	8.11	9.37	9.47	8.59	7.08	5.35	3.83	2.78	2.34	2.47
-8.41	-10.4	-12.63	-14.87	-16.65	-17.39	-16.6	-14.1	-10.12	-5.22	-0.12	4.54	8.38	11.26	13.19	14.2	14.3	13.48	11.86	9.71	7.44	5.52	4.27	3.74	3.7	3.73	3.48	2.81	1.8	0.72	-0.22	-0.98	-1.67	-2.52	-3.65	-5.02	-6.47	-7.84	-9.14	-10.59	-12.49	-15	-17.95	-20.8	-22.86	-23.5	-22.43	-19.75	-15.85	-11.26	-6.46	-1.83	2.31	5.7	8.11	9.37	9.47	8.59	7.08	5.35	3.83	2.78	2.34	2.47	3.04	3.86	4.77	5.7	6.62	7.52	8.43	9.32	10.17	10.95	11.65	12.24	12.69	12.9	12.8	12.36	11.63	10.74	9.97	9.62	10	11.4	13.95	17.59	21.98	26.57	30.73	33.89	35.79	36.42	35.96	34.6	32.45	29.57	26.02	22.05	18.02	14.34	11.28	8.87	6.87	4.93	2.74	0.19	-2.6	-5.41	-7.99	-10.19	-11.94	-13.33	-14.52	-15.72	-17.15	-18.98	-21.27	-23.92	-26.6	-28.87	-30.26	-30.39	-29.11	-26.51	-22.91	-18.74
3.04	3.86	4.77	5.7	6.62	7.52	8.43	9.32	10.17	10.95	11.65	12.24	12.69	12.9	12.8	12.36	11.63	10.74	9.97	9.62	10	11.4	13.95	17.59	21.98	26.57	30.73	33.89	35.79	36.42	35.96	34.6	32.45	29.57	26.02	22.05	18.02	14.34	11.28	8.87	6.87	4.93	2.74	0.19	-2.6	-5.41	-7.99	-10.19	-11.94	-13.33	-14.52	-15.72	-17.15	-18.98	-21.27	-23.92	-26.6	-28.87	-30.26	-30.39	-29.11	-26.51	-22.91	-18.74	-14.43	-10.38	-6.89	-4.16	-2.28	-1.24	-1	-1.4	-2.33	-3.61	-5.07	-6.48	-7.63	-8.31	-8.39	-7.87	-6.88	-5.69	-4.55	-3.73	-3.34	-3.4	-3.81	-4.41	-5.05	-5.66	-6.26	-6.95	-7.85	-9.13	-10.84	-12.97	-15.33	-17.51	-19.01	-19.31	-18.05	-15.22	-11.14	-6.43	-1.77	2.31	5.52	7.79	9.19	9.8	9.74	9.09	8.04	6.79	5.57	4.54	3.78	3.32	3.14	3.19	3.44	3.79	4.12	4.26	4.11	3.66	3.04	2.44
-14.43	-10.38	-6.89	-4.16	-2.28	-1.24	-1	-1.4	-2.33	-3.61	-5.07	-6.48	-7.63	-8.31	-8.39	-7.87	-6.88	-5.69	-4.55	-3.73	-3.34	-3.4	-3.81	-4.41	-5.05	-5.66	-6.26	-6.95	-7.85	-9.13	-10.84	-12.97	-15.33	-17.51	-19.01	-19.31	-18.05	-15.22	-11.14	-6.43	-1.77	2.31	5.52	7.79	9.19	9.8	9.74	9.09	8.04	6.79	5.57	4.54	3.78	3.32	3.14	3.19	3.44	3.79	4.12	4.26	4.11	3.66	3.04	2.44	2.01	1.75	1.5	1.01	0.07	-1.43	-3.42	-5.77	-8.26	-10.64	-12.58	-13.67	-13.51	-11.84	-8.68	-4.45	0.18	4.53	8.06	10.56	12.06	12.72	12.67	12.01	10.88	9.45	7.96	6.65	5.66	5.01	4.61	4.35	4.2	4.16	4.23	4.35	4.34	3.99	3.18	1.93	0.47	-0.93	-2.07	-3	-3.92	-5.13	-6.82	-8.94	-11.28	-13.5	-15.3	-16.46	-16.81	-16.21	-14.49	-11.58	-7.58	-2.84	2.04	6.39	9.67	11.65	12.37	12.1
2.01	1.75	1.5	1.01	0.07	-1.43	-3.42	-5.77	-8.26	-10.64	-12.58	-13.67	-13.51	-11.84	-8.68	-4.45	0.18	4.53	8.06	10.56	12.06	12.72	12.67	12.01	10.88	9.45	7.96	6.65	5.66	5.01	4.61	4.35	4.2	4.16	4.23	4.35	4.34	3.99	3.18	1.93	0.47	-0.93	-2.07	-3	-3.92	-5.13	-6.82	-8.94	-11.28	-13.5	-15.3	-16.46	-16.81	-16.21	-14.49	-11.58	-7.58	-2.84	2.04	6.39	9.67	11.65	12.37	12.1	11.17	9.87	8.43	7	5.74	4.71	3.96	3.47	3.2	3.11	3.19	3.42	3.76	4.13	4.33	4.18	3.52	2.32	0.68	-1.22	-3.14	-4.88	-6.33	-7.55	-8.7	-10.03	-11.72	-13.8	-16	-17.85	-18.81	-18.42	-16.47	-13.06	-8.62	-3.73	0.97	4.97	7.97	9.91	10.89	11.06	10.59	9.6	8.19	6.59	5	3.68	2.77	2.23	1.89	1.57	1.2	0.86	0.71	0.89	1.32	1.76	1.92	1.59	0.76	-0.44	-1.82	-3.27
11.17	9.87	8.43	7	5.74	4.71	3.96	3.47	3.2	3.11	3.19	3.42	3.76	4.13	4.33	4.18	3.52	2.32	0.68	-1.22	-3.14	-4.88	-6.33	-7.55	-8.7	-10.03	-11.72	-13.8	-16	-17.85	-18.81	-18.42	-16.47	-13.06	-8.62	-3.73	0.97	4.97	7.97	9.91	10.89	11.06	10.59	9.6	8.19	6.59	5	3.68	2.77	2.23	1.89	1.57	1.2	0.86	0.71	0.89	1.32	1.76	1.92	1.59	0.76	-0.44	-1.82	-3.27	-4.83	-6.59	-8.64	-10.88	-13.07	-14.81	-15.71	-15.46	-13.9	-11.05	-7.13	-2.49	2.33	6.79	10.42	12.9	14.19	14.42	13.84	12.71	11.22	9.51	7.76	6.2	5.08	4.57	4.64	5.09	5.55	5.74	5.46	4.73	3.71	2.61	1.6	0.73	-0.05	-0.87	-1.87	-3.13	-4.65	-6.39	-8.28	-10.24	-12.21	-14.05	-15.52	-16.22	-15.75	-13.84	-10.48	-6.07	-1.21	3.38	7.14	9.77	11.27	11.81	11.69	11.14	10.34	9.41	8.39	7.34
