-0	-0	-0	-0	-0	-0	-0	-0	-0	-0	0	0.01	0.01	-0	-0.03	-0.05	-0.05	0	0.13	0.36	0.66	1.01	1.37	1.72	2.06	2.4	2.79	3.24	3.8	4.42	5.06	5.66	6.2	6.68	7.15	7.68	8.31	9.14	10.09	11.04	11.88	12.56	13.14	13.76	14.65	15.96	17.91	20.32	22.9	25.38	27.58	29.57	31.68	34.32	37.81	42.54	48.15	54.1	59.83	64.97	69.58	74.14	79.34	85.71	93.76	103	112.62	121.73	129.77	136.75	143.3	150.75	157.77	166.64	177.95	191.79	206.97	220.57	228.25	225.36	208.53	176.87	132.76	80.05	23.07	-34.94	-92.44	-149.16	-205.23	-260.37	-313.74	-363.87	-409.83	-450.91	-486.5	-515.74	-537.23	-549.22	-549.96	-538.37	-514.21	-478.67	-433.88	-382.45	-327.02	-269.84	-212.63	-156.66	-102.95	-52.37	-5.9	35.58	71.43	101.35	125.5	144.38	158.69	169.15	176.37	180.75	182.57	182.07	179.51	175.23	169.65	163.18	156.15	148.81
93.76	103	112.62	121.73	129.77	136.75	143.3	150.75	157.77	166.64	177.95	191.79	206.97	220.57	228.25	225.36	208.53	176.87	132.76	80.05	23.07	-34.94	-92.44	-149.16	-205.23	-260.37	-313.74	-363.87	-409.83	-450.91	-486.5	-515.74	-537.23	-549.22	-549.96	-538.37	-514.21	-478.67	-433.88	-382.45	-327.02	-269.84	-212.63	-156.66	-102.95	-52.37	-5.9	35.58	71.43	101.35	125.5	144.38	158.69	169.15	176.37	180.75	182.57	182.07	179.51	175.23	169.65	163.18	156.15	148.81	141.3	133.69	126.02	118.33	110.69	103.16	95.8	88.68	81.83	75.25	68.95	62.95	57.25	51.86	46.78	42.03	37.59	33.45	29.61	26.07	22.81	19.83	17.11	14.67	12.48	10.54	8.83	7.35	6.07	4.97	4.05	3.27	2.62	2.09	1.65	1.3	1.01	0.79	0.61	0.47	0.37	0.28	0.22	0.18	0.14	0.12	0.11	0.11	0.11	0.13	0.14	0.17	0.2	0.23	0.27	0.31	0.36	0.4	0.44	0.49	0.54	0.59	0.64	0.7
141.3	133.69	126.02	118.33	110.69	103.16	95.8	88.68	81.83	75.25	68.95	62.95	57.25	51.86	46.78	42.03	37.59	33.45	29.61	26.07	22.81	19.83	17.11	14.67	12.48	10.54	8.83	7.35	6.07	4.97	4.05	3.27	2.62	2.09	1.65	1.3	1.01	0.79	0.61	0.47	0.37	0.28	0.22	0.18	0.14	0.12	0.11	0.11	0.11	0.13	0.14	0.17	0.2	0.23	0.27	0.31	0.36	0.4	0.44	0.49	0.54	0.59	0.64	0.7	0.76	0.82	0.9	0.97	1.06	1.15	1.26	1.37	1.51	1.65	1.82	2.01	2.21	2.44	2.69	2.97	3.28	3.62	3.99	4.39	4.83	5.31	5.82	6.37	6.96	7.59	8.27	8.99	9.77	10.6	11.47	12.37	13.28	14.21	15.16	16.15	17.22	18.38	19.62	20.87	22.05	23.05	23.72	23.96	23.66	22.76	21.21	18.99	16.07	12.49	8.27	3.55	-1.42	-6.38	-11.01	-15.05	-18.34	-20.85	-22.71	-24.06	-25.05	-25.74	-26.06	-25.89
0.76	0.82	0.9	0.97	1.06	1.15	1.26	1.37	1.51	1.65	1.82	2.01	2.21	2.44	2.69	2.97	3.28	3.62	3.99	4.39	4.83	5.31	5.82	6.37	6.96	7.59	8.27	8.99	9.77	10.6	11.47	12.37	13.28	14.21	15.16	16.15	17.22	18.38	19.62	20.87	22.05	23.05	23.72	23.96	23.66	22.76	21.21	18.99	16.07	12.49	8.27	3.55	-1.42	-6.38	-11.01	-15.05	-18.34	-20.85	-22.71	-24.06	-25.05	-25.74	-26.06	-25.89	-25.15	-23.92	-22.44	-21.07	-20.22	-20.06	-20.54	-21.31	-21.89	-21.89	-21.19	-20.11	-19.17	-18.96	-19.81	-21.6	-23.8	-25.7	-26.76	-26.83	-26.24	-25.63	-25.71	-26.95	-29.71	-34.02	-39.48	-45.03	-48.83	-48.7	-42.87	-30.95	-14.35	3.93	20.44	32.63	39.62	42.2	41.96	40.36	38.08	35.18	31.54	27.43	23.58	20.74	19.17	18.43	17.46	15.11	11.01	5.35	-1.08	-7.19	-12.11	-15.55	-17.94	-20.38	-24.18	-30.34	-39.02	-49.12	-58.39	-64.07
-25.15	-23.92	-22.44	-21.07	-20.22	-20.06	-20.54	-21.31	-21.89	-21.89	-21.19	-20.11	-19.17	-18.96	-19.81	-21.6	-23.8	-25.7	-26.76	-26.83	-26.24	-25.63	-25.71	-26.95	-29.71	-34.02	-39.48	-45.03	-48.83	-48.7	-42.87	-30.95	-14.35	3.93	20.44	32.63	39.62	42.2	41.96	40.36	38.08	35.18	31.54	27.43	23.58	20.74	19.17	18.43	17.46	15.11	11.01	5.35	-1.08	-7.19	-12.11	-15.55	-17.94	-20.38	-24.18	-30.34	-39.02	-49.12	-58.39	-64.07	-63.73	-56.17	-41.83	-22.67	-1.56	18.56	35.38	47.68	55.27	58.74	59.07	57.33	54.44	51.05	47.59	44.33	41.49	39.28	37.88	37.32	37.43	37.9	38.41	38.77	39	39.25	39.63	40.12	40.41	40.09	38.76	36.23	32.61	28.26	23.71	19.47	15.93	13.24	11.35	10.01	8.8	7.32	5.23	2.43	-0.95	-4.54	-7.91	-10.72	-12.91	-14.73	-16.63	-19.11	-22.53	-26.96	-32.2	-37.83	-43.32	-48.21	-52.21	-55.39	-58.16	-61.28	-65.63	-71.83
-63.73	-56.17	-41.83	-22.67	-1.56	18.56	35.38	47.68	55.27	58.74	59.07	57.33	54.44	51.05	47.59	44.33	41.49	39.28	37.88	37.32	37.43	37.9	38.41	38.77	39	39.25	39.63	40.12	40.41	40.09	38.76	36.23	32.61	28.26	23.71	19.47	15.93	13.24	11.35	10.01	8.8	7.32	5.23	2.43	-0.95	-4.54	-7.91	-10.72	-12.91	-14.73	-16.63	-19.11	-22.53	-26.96	-32.2	-37.83	-43.32	-48.21	-52.21	-55.39	-58.16	-61.28	-65.63	-71.83	-79.86	-88.77	-96.64	-101.01	-99.62	-91.14	-75.82	-55.4	-32.69	-10.73	8.01	22.11	31.33	36.34	38.31	38.53	38.1	37.8	38	38.75	39.87	41.11	42.3	43.36	44.3	45.07	45.65	45.96	46.06	46.08	46.2	46.45	46.65	46.39	45.24	43.01	39.84	36.24	32.74	29.67	27	24.45	21.69	18.55	15.1	11.63	8.41	5.59	3.11	0.8	-1.56	-4.15	-6.99	-9.99	-12.93	-15.63	-18.06	-20.42	-23.13	-26.61	-31.08	-36.42	-42.15	-47.67
-79.86	-88.77	-96.64	-101.01	-99.62	-91.14	-75.82	-55.4	-32.69	-10.73	8.01	22.11	31.33	36.34	38.31	38.53	38.1	37.8	38	38.75	39.87	41.11	42.3	43.36	44.3	45.07	45.65	45.96	46.06	46.08	46.2	46.45	46.65	46.39	45.24	43.01	39.84	36.24	32.74	29.67	27	24.45	21.69	18.55	15.1	11.63	8.41	5.59	3.11	0.8	-1.56	-4.15	-6.99	-9.99	-12.93	-15.63	-18.06	-20.42	-23.13	-26.61	-31.08	-36.42	-42.15	-47.67	-52.43	-56.1	-58.72	-60.67	-62.58	-65.32	-69.77	-76.5	-85.36	-95.15	-103.62	-107.99	-105.82	-95.89	-78.77	-56.74	-33.07	-11.04	6.97	19.93	28.04	32.35	34.25	35	35.56	36.58	38.38	40.93	43.95	46.94	49.33	50.77	51.18	50.84	50.31	50.16	50.76	52.15	54.04	55.83	56.93	56.91	55.6	53.24	50.26	47.32	44.84	42.94	41.35	39.55	37.1	33.93	30.42	27.24	24.98	23.86	23.62	23.56	22.93	21.25	18.42	14.85	11.16	7.96
-52.43	-56.1	-58.72	-60.67	-62.58	-65.32	-69.77	-76.5	-85.36	-95.15	-103.62	-107.99	-105.82	-95.89	-78.77	-56.74	-33.07	-11.04	6.97	19.93	28.04	32.35	34.25	35	35.56	36.58	38.38	40.93	43.95	46.94	49.33	50.77	51.18	50.84	50.31	50.16	50.76	52.15	54.04	55.83	56.93	56.91	55.6	53.24	50.26	47.32	44.84	42.94	41.35	39.55	37.1	33.93	30.42	27.24	24.98	23.86	23.62	23.56	22.93	21.25	18.42	14.85	11.16	7.96	5.63	4.15	3.19	2.18	0.55	-2.05	-5.61	-9.77	-13.86	-17.21	-19.38	-20.44	-21.06	-22.49	-26.19	-33.39	-44.46	-58.4	-72.72	-83.91	-88.38	-83.67	-69.38	-47.53	-21.95	2.78	22.73	35.57	40.95	40.11	35.09	28.07	20.79	14.5	9.91	7.38	6.9	8.07	10.19	12.42	14.04	14.67	14.36	13.53	12.83	12.9	14.18	16.76	20.41	24.55	28.4	31.23	32.57	32.35	30.93	28.83	26.62	24.63	22.95	21.46	19.98	18.36	16.6	14.78
5.63	4.15	3.19	2.18	0.55	-2.05	-5.61	-9.77	-13.86	-17.21	-19.38	-20.44	-21.06	-22.49	-26.19	-33.39	-44.46	-58.4	-72.72	-83.91	-88.38	-83.67	-69.38	-47.53	-21.95	2.78	22.73	35.57	40.95	40.11	35.09	28.07	20.79	14.5	9.91	7.38	6.9	8.07	10.19	12.42	14.04	14.67	14.36	13.53	12.83	12.9	14.18	16.76	20.41	24.55	28.4	31.23	32.57	32.35	30.93	28.83	26.62	24.63	22.95	21.46	19.98	18.36	16.6	14.78	13.03	11.52	10.38	9.63	9.19	8.74	7.9	6.27	3.66	0.23	-3.53	-6.93	-9.23	-9.89	-8.64	-5.54	-1.03	4.04	8.5	10.97	10.32	6.01	-1.75	-12.17	-24.31	-37.46	-51.11	-64.58	-76.59	-85.13	-87.85	-82.96	-70.1	-50.85	-28.54	-7.47	8.25	15.77	14.09	4.24	-11.19	-28.82	-45.39	-58.53	-67.06	-70.96	-70.93	-67.92	-62.85	-56.5	-49.56	-42.72	-36.55	-31.41	-27.34	-24.08	-21.16	-18.23	-15.12	-11.95	-9	-6.63	-5.08	-4.41
13.03	11.52	10.38	9.63	9.19	8.74	7.9	6.27	3.66	0.23	-3.53	-6.93	-9.23	-9.89	-8.64	-5.54	-1.03	4.04	8.5	10.97	10.32	6.01	-1.75	-12.17	-24.31	-37.46	-51.11	-64.58	-76.59	-85.13	-87.85	-82.96	-70.1	-50.85	-28.54	-7.47	8.25	15.77	14.09	4.24	-11.19	-28.82	-45.39	-58.53	-67.06	-70.96	-70.93	-67.92	-62.85	-56.5	-49.56	-42.72	-36.55	-31.41	-27.34	-24.08	-21.16	-18.23	-15.12	-11.95	-9	-6.63	-5.08	-4.41	-4.5	-5.02	-5.54	-5.64	-5.12	-4.06	-2.87	-2.11	-2.26	-3.45	-5.39	-7.49	-9.08	-9.83	-9.83	-9.62	-9.85	-11.06	-13.41	-16.68	-20.38	-23.99	-27.09	-29.56	-31.55	-33.54	-36.22	-40.36	-46.5	-54.54	-63.54	-71.58	-76.26	-75.3	-67.36	-52.59	-32.63	-10.22	11.63	30.43	44.7	54.19	59.58	62.06	62.8	62.52	61.47	59.45	56.27	52.1	47.67	44.08	42.38	43.07	45.93	50.1	54.56	58.44	61.28	62.92	63.24	62.16	59.54	55.51
-4.5	-5.02	-5.54	-5.64	-5.12	-4.06	-2.87	-2.11	-2.26	-3.45	-5.39	-7.49	-9.08	-9.83	-9.83	-9.62	-9.85	-11.06	-13.41	-16.68	-20.38	-23.99	-27.09	-29.56	-31.55	-33.54	-36.22	-40.36	-46.5	-54.54	-63.54	-71.58	-76.26	-75.3	-67.36	-52.59	-32.63	-10.22	11.63	30.43	44.7	54.19	59.58	62.06	62.8	62.52	61.47	59.45	56.27	52.1	47.67	44.08	42.38	43.07	45.93	50.1	54.56	58.44	61.28	62.92	63.24	62.16	59.54	55.51	50.49	45.23	40.5	36.82	34.24	32.31	30.36	27.69	23.9	18.94	13.2	7.34	2.06	-2.15	-5.2	-7.41	-9.39	-11.76	-14.89	-18.79	-23.05	-27	-29.91	-31.23	-30.76	-28.75	-25.9	-23.15	-21.53	-21.95	-25.05	-31.13	-39.96	-50.67	-61.62	-70.46	-74.59	-71.89	-61.44	-43.95	-21.57	2.83	26.55	47.62	64.93	77.86	85.99	89.06	87.23	81.34	72.93	63.71	55.04	47.46	40.69	34.04	26.78	18.54	9.22	-0.99	-11.75	-22.48	-32.33	-40.35
50.49	45.23	40.5	36.82	34.24	32.31	30.36	27.69	23.9	18.94	13.2	7.34	2.06	-2.15	-5.2	-7.41	-9.39	-11.76	-14.89	-18.79	-23.05	-27	-29.91	-31.23	-30.76	-28.75	-25.9	-23.15	-21.53	-21.95	-25.05	-31.13	-39.96	-50.67	-61.62	-70.46	-74.59	-71.89	-61.44	-43.95	-21.57	2.83	26.55	47.62	64.93	77.86	85.99	89.06	87.23	81.34	72.93	63.71	55.04	47.46	40.69	34.04	26.78	18.54	9.22	-0.99	-11.75	-22.48	-32.33	-40.35	-45.72	-48.15	-47.86	-45.58	-42.17	-38.36	-34.64	-31.28	-28.48	-26.38	-25.04	-24.31	-23.81	-23.08	-21.78	-19.9	-17.72	-15.78	-14.49	-14.08	-14.45	-15.34	-16.44	-17.47	-18.34	-19.03	-19.64	-20.34	-21.37	-23.01	-25.4	-28.49	-31.95	-35.31	-38.18	-40.47	-42.54	-45.16	-49.25	-55.53	-64	-73.64	-82.47	-87.83	-87.25	-79.22	-63.9	-43.15	-20.07	2.02	20.49	33.9	42.23	46.4	47.77	47.59	46.76	45.79	44.88	44.16	43.72	43.75	44.37	45.56
-45.72	-48.15	-47.86	-45.58	-42.17	-38.36	-34.64	-31.28	-28.48	-26.38	-25.04	-24.31	-23.81	-23.08	-21.78	-19.9	-17.72	-15.78	-14.49	-14.08	-14.45	-15.34	-16.44	-17.47	-18.34	-19.03	-19.64	-20.34	-21.37	-23.01	-25.4	-28.49	-31.95	-35.31	-38.18	-40.47	-42.54	-45.16	-49.25	-55.53	-64	-73.64	-82.47	-87.83	-87.25	-79.22	-63.9	-43.15	-20.07	2.02	20.49	33.9	42.23	46.4	47.77	47.59	46.76	45.79	44.88	44.16	43.72	43.75	44.37	45.56	47.16	48.96	50.78	52.57	54.37	56.18	57.88	59.16	59.63	59.01	57.26	54.59	51.4	48.06	44.85	41.88	39.05	36.16	33.08	29.73	26.29	23.1	20.53	18.78	17.76	17.13	16.5	15.62	14.44	13	11.25	8.88	5.4	0.32	-6.53	-14.87	-24.02	-33.19	-41.75	-49.52	-56.75	-64.07	-72.24	-81.87	-93.07	-105.19	-116.76	-125.56	-129.22	-125.84	-114.77	-96.94	-74.67	-51.11	-29.25	-11.21	2.22	11.44	17.56	21.83	25.19	28.09	30.68	32.95
47.16	48.96	50.78	52.57	54.37	56.18	57.88	59.16	59.63	59.01	57.26	54.59	51.4	48.06	44.85	41.88	39.05	36.16	33.08	29.73	26.29	23.1	20.53	18.78	17.76	17.13	16.5	15.62	14.44	13	11.25	8.88	5.4	0.32	-6.53	-14.87	-24.02	-33.19	-41.75	-49.52	-56.75	-64.07	-72.24	-81.87	-93.07	-105.19	-116.76	-125.56	-129.22	-125.84	-114.77	-96.94	-74.67	-51.11	-29.25	-11.21	2.22	11.44	17.56	21.83	25.19	28.09	30.68	32.95	34.94	36.81	38.7	40.71	42.79	44.83	46.76	48.57	50.28	51.9	53.41	54.75	55.85	56.64	57.07	57.08	56.56	55.45	53.79	51.72	49.45	47.13	44.77	42.24	39.39	36.21	32.91	29.8	27.1	24.76	22.51	19.9	16.65	12.79	8.67	4.78	1.48	-1.27	-3.91	-7.09	-11.34	-16.75	-22.96	-29.29	-35.08	-39.99	-44.17	-48.23	-53.04	-59.5	-68.19	-79.1	-91.34	-103.06	-111.72	-114.75	-110.37	-98.28	-79.89	-57.88	-35.44	-15.36	0.66	12.11
34.94	36.81	38.7	40.71	42.79	44.83	46.76	48.57	50.28	51.9	53.41	54.75	55.85	56.64	57.07	57.08	56.56	55.45	53.79	51.72	49.45	47.13	44.77	42.24	39.39	36.21	32.91	29.8	27.1	24.76	22.51	19.9	16.65	12.79	8.67	4.78	1.48	-1.27	-3.91	-7.09	-11.34	-16.75	-22.96	-29.29	-35.08	-39.99	-44.17	-48.23	-53.04	-59.5	-68.19	-79.1	-91.34	-103.06	-111.72	-114.75	-110.37	-98.28	-79.89	-57.88	-35.44	-15.36	0.66	12.11	19.48	23.79	26.21	27.78	29.33	31.44	34.37	38.11	42.34	46.6	50.41	53.44	55.63	57.13	58.27	59.41	60.77	62.4	64.1	65.42	65.84	64.93	62.55	59.05	55.09	51.52	48.9	47.3	46.28	45.14	43.3	40.56	37.19	33.74	30.75	28.46	26.8	25.44	23.95	21.97	19.21	15.64	11.39	6.8	2.31	-1.73	-5.18	-8.23	-11.27	-14.75	-18.88	-23.55	-28.4	-33.03	-37.22	-41.09	-45.12	-50.03	-56.52	-64.96	-75.08	-85.74	-95.04	-100.62
19.48	23.79	26.21	27.78	29.33	31.44	34.37	38.11	42.34	46.6	50.41	53.44	55.63	57.13	58.27	59.41	60.77	62.4	64.1	65.42	65.84	64.93	62.55	59.05	55.09	51.52	48.9	47.3	46.28	45.14	43.3	40.56	37.19	33.74	30.75	28.46	26.8	25.44	23.95	21.97	19.21	15.64	11.39	6.8	2.31	-1.73	-5.18	-8.23	-11.27	-14.75	-18.88	-23.55	-28.4	-33.03	-37.22	-41.09	-45.12	-50.03	-56.52	-64.96	-75.08	-85.74	-95.04	-100.62	-100.44	-93.42	-79.89	-61.62	-41.2	-21.29	-3.94	9.83	19.83	26.5	30.46	32.32	32.74	32.38	31.93	32.06	33.15	35.26	38.12	41.28	44.27	46.78	48.59	49.54	49.52	48.55	46.8	44.74	42.91	41.74	41.33	41.37	41.43	41.16	40.58	39.98	39.74	40.01	40.57	40.88	40.39	38.81	36.21	32.94	29.46	26.07	22.84	19.68	16.44	12.96	9.21	5.23	1.14	-2.96	-6.97	-10.84	-14.68	-18.71	-23.19	-28.33	-34.1	-40.23	-46.23	-51.59
-100.44	-93.42	-79.89	-61.62	-41.2	-21.29	-3.94	9.83	19.83	26.5	30.46	32.32	32.74	32.38	31.93	32.06	33.15	35.26	38.12	41.28	44.27	46.78	48.59	49.54	49.52	48.55	46.8	44.74	42.91	41.74	41.33	41.37	41.43	41.16	40.58	39.98	39.74	40.01	40.57	40.88	40.39	38.81	36.21	32.94	29.46	26.07	22.84	19.68	16.44	12.96	9.21	5.23	1.14	-2.96	-6.97	-10.84	-14.68	-18.71	-23.19	-28.33	-34.1	-40.23	-46.23	-51.59	-55.98	-59.4	-62.2	-65.01	-68.6	-73.66	-80.51	-88.92	-97.8	-105.26	-108.95	-106.77	-97.59	-81.83	-61.49	-39.5	-18.87	-1.82	10.65	18.7	23.23	25.41	26.27	26.6	26.91	27.5	28.49	29.86	31.53	33.36	35.22	36.97	38.45	39.53	40.2	40.58	40.94	41.55	42.47	43.45	44.02	43.64	42.07	39.45	36.33	33.42	31.26	30	29.3	28.61	27.4	25.4	22.76	19.86	17.11	14.73	12.63	10.5	8.02	5.05	1.71	-1.67	-4.83	-7.71
-55.98	-59.4	-62.2	-65.01	-68.6	-73.66	-80.51	-88.92	-97.8	-105.26	-108.95	-106.77	-97.59	-81.83	-61.49	-39.5	-18.87	-1.82	10.65	18.7	23.23	25.41	26.27	26.6	26.91	27.5	28.49	29.86	31.53	33.36	35.22	36.97	38.45	39.53	40.2	40.58	40.94	41.55	42.47	43.45	44.02	43.64	42.07	39.45	36.33	33.42	31.26	30	29.3	28.61	27.4	25.4	22.76	19.86	17.11	14.73	12.63	10.5	8.02	5.05	1.71	-1.67	-4.83	-7.71	-10.58	-13.88	-18.03	-23.1	-28.79	-34.49	-39.56	-43.58	-46.51	-48.7	-50.8	-53.63	-58	-64.52	-73.31	-83.75	-94.32	-102.73	-106.47	-103.6	-93.45	-77	-56.64	-35.47	-16.29	-0.98	9.87	16.74	20.69	22.92	24.41	25.84	27.57	29.69	32.1	34.57	36.84	38.74	40.24	41.4	42.3	43.03	43.63	44.17	44.75	45.46	46.27	47.02	47.4	47.08	45.91	43.96	41.55	39.07	36.8	34.79	32.94	31.09	29.14	27.14	25.21	23.5	22.03	20.77
-10.58	-13.88	-18.03	-23.1	-28.79	-34.49	-39.56	-43.58	-46.51	-48.7	-50.8	-53.63	-58	-64.52	-73.31	-83.75	-94.32	-102.73	-106.47	-103.6	-93.45	-77	-56.64	-35.47	-16.29	-0.98	9.87	16.74	20.69	22.92	24.41	25.84	27.57	29.69	32.1	34.57	36.84	38.74	40.24	41.4	42.3	43.03	43.63	44.17	44.75	45.46	46.27	47.02	47.4	47.08	45.91	43.96	41.55	39.07	36.8	34.79	32.94	31.09	29.14	27.14	25.21	23.5	22.03	20.77	19.49	17.92	15.81	12.97	9.45	5.47	1.46	-2.15	-5.07	-7.31	-9.25	-11.41	-14.3	-18.17	-22.96	-28.26	-33.51	-38.2	-42.03	-45	-47.46	-50.01	-53.38	-58.26	-65.04	-73.55	-82.84	-91.17	-96.35	-96.31	-89.88	-77.19	-59.82	-40.31	-21.37	-5.15	7.29	15.91	21.39	24.67	26.6	27.82	28.82	29.94	31.45	33.4	35.65	37.85	39.62	40.67	41.03	40.98	40.96	41.36	42.35	43.75	45.16	46.07	46.07	45.02	43.05	40.5	37.79	35.31
19.49	17.92	15.81	12.97	9.45	5.47	1.46	-2.15	-5.07	-7.31	-9.25	-11.41	-14.3	-18.17	-22.96	-28.26	-33.51	-38.2	-42.03	-45	-47.46	-50.01	-53.38	-58.26	-65.04	-73.55	-82.84	-91.17	-96.35	-96.31	-89.88	-77.19	-59.82	-40.31	-21.37	-5.15	7.29	15.91	21.39	24.67	26.6	27.82	28.82	29.94	31.45	33.4	35.65	37.85	39.62	40.67	41.03	40.98	40.96	41.36	42.35	43.75	45.16	46.07	46.07	45.02	43.05	40.5	37.79	35.31	33.27	31.68	30.39	29.11	27.58	25.63	23.27	20.68	18.1	15.78	13.83	12.18	10.58	8.77	6.56	3.92	1.03	-1.87	-4.52	-6.83	-8.93	-11.09	-13.67	-16.91	-20.81	-25.12	-29.45	-33.44	-36.94	-40.15	-43.56	-47.76	-53.21	-60.05	-67.91	-75.89	-82.57	-86.28	-85.4	-78.94	-66.87	-50.35	-31.51	-12.85	3.4	15.83	24.13	28.86	31.01	31.61	31.43	30.9	30.28	29.71	29.36	29.4	29.96	31.02	32.43	33.9	35.17	36.08	36.65	37.05
33.27	31.68	30.39	29.11	27.58	25.63	23.27	20.68	18.1	15.78	13.83	12.18	10.58	8.77	6.56	3.92	1.03	-1.87	-4.52	-6.83	-8.93	-11.09	-13.67	-16.91	-20.81	-25.12	-29.45	-33.44	-36.94	-40.15	-43.56	-47.76	-53.21	-60.05	-67.91	-75.89	-82.57	-86.28	-85.4	-78.94	-66.87	-50.35	-31.51	-12.85	3.4	15.83	24.13	28.86	31.01	31.61	31.43	30.9	30.28	29.71	29.36	29.4	29.96	31.02	32.43	33.9	35.17	36.08	36.65	37.05	37.44	37.84	38.05	37.75	36.64	34.67	32.11	29.46	27.23	25.66	24.66	23.86	22.89	21.54	19.92	18.25	16.78	15.51	14.3	12.95	11.41	9.73	8.04	6.31	4.4	2.12	-0.58	-3.6	-6.64	-9.49	-12.16	-14.88	-17.97	-21.61	-25.7	-29.92	-33.88	-37.32	-40.25	-42.92	-45.76	-49.31	-54.11	-60.52	-68.47	-77.19	-85.14	-90.27	-90.57	-84.89	-73.45	-57.83	-40.49	-23.95	-10.05	0.35	7.24	11.17	12.83	12.86	11.86	10.43	9.16	8.55
37.44	37.84	38.05	37.75	36.64	34.67	32.11	29.46	27.23	25.66	24.66	23.86	22.89	21.54	19.92	18.25	16.78	15.51	14.3	12.95	11.41	9.73	8.04	6.31	4.4	2.12	-0.58	-3.6	-6.64	-9.49	-12.16	-14.88	-17.97	-21.61	-25.7	-29.92	-33.88	-37.32	-40.25	-42.92	-45.76	-49.31	-54.11	-60.52	-68.47	-77.19	-85.14	-90.27	-90.57	-84.89	-73.45	-57.83	-40.49	-23.95	-10.05	0.35	7.24	11.17	12.83	12.86	11.86	10.43	9.16	8.55	8.95	10.42	12.77	15.66	18.73	21.71	24.48	27.07	29.58	32.04	34.29	36.07	37.04	37	35.99	34.27	32.23	30.21	28.45	27.01	25.81	24.74	23.68	22.56	21.35	20.02	18.53	16.81	14.8	12.48	9.93	7.28	4.72	2.31	0.01	-2.42	-5.26	-8.73	-12.85	-17.42	-22.12	-26.55	-30.46	-33.81	-36.81	-39.9	-43.67	-48.75	-55.52	-63.95	-73.22	-81.79	-87.57	-88.46	-83.11	-71.39	-54.67	-35.35	-16.26	0.21	12.64	20.85	25.5	27.78
8.95	10.42	12.77	15.66	18.73	21.71	24.48	27.07	29.58	32.04	34.29	36.07	37.04	37	35.99	34.27	32.23	30.21	28.45	27.01	25.81	24.74	23.68	22.56	21.35	20.02	18.53	16.81	14.8	12.48	9.93	7.28	4.72	2.31	0.01	-2.42	-5.26	-8.73	-12.85	-17.42	-22.12	-26.55	-30.46	-33.81	-36.81	-39.9	-43.67	-48.75	-55.52	-63.95	-73.22	-81.79	-87.57	-88.46	-83.11	-71.39	-54.67	-35.35	-16.26	0.21	12.64	20.85	25.5	27.78	28.89	29.75	30.96	32.76	35.18	38.03	40.95	43.5	45.28	46.11	46.14	45.82	45.68	46.14	47.26	48.76	50.17	51.02	51.01	50.09	48.39	46.05	43.25	40.11	36.78	33.43	30.2	27.24	24.56	22.12	19.76	17.32	14.67	11.79	8.72	5.59	2.54	-0.28	-2.75	-4.8	-6.48	-7.94	-9.5	-11.53	-14.31	-17.84	-21.87	-25.91	-29.48	-32.36	-34.62	-36.64	-38.95	-42.06	-46.34	-51.96	-58.81	-66.34	-73.44	-78.55	-79.91	-76.12	-66.73	-52.5
28.89	29.75	30.96	32.76	35.18	38.03	40.95	43.5	45.28	46.11	46.14	45.82	45.68	46.14	47.26	48.76	50.17	51.02	51.01	50.09	48.39	46.05	43.25	40.11	36.78	33.43	30.2	27.24	24.56	22.12	19.76	17.32	14.67	11.79	8.72	5.59	2.54	-0.28	-2.75	-4.8	-6.48	-7.94	-9.5	-11.53	-14.31	-17.84	-21.87	-25.91	-29.48	-32.36	-34.62	-36.64	-38.95	-42.06	-46.34	-51.96	-58.81	-66.34	-73.44	-78.55	-79.91	-76.12	-66.73	-52.5	-35.3	-17.58	-1.61	11.09	19.98	25.33	27.86	28.42	27.78	26.57	25.34	24.45	24.15	24.5	25.4	26.62	27.91	29.03	29.81	30.24	30.39	30.44	30.57	30.84	31.13	31.18	30.71	29.55	27.73	25.45	22.95	20.37	17.79	15.24	12.79	10.62	8.86	7.51	6.44	5.31	3.83	1.8	-0.73	-3.55	-6.41	-9.08	-11.5	-13.68	-15.76	-17.93	-20.36	-23.12	-26.11	-29.11	-31.87	-34.28	-36.46	-38.75	-41.64	-45.6	-50.88	-57.4	-64.64	-71.52
-35.3	-17.58	-1.61	11.09	19.98	25.33	27.86	28.42	27.78	26.57	25.34	24.45	24.15	24.5	25.4	26.62	27.91	29.03	29.81	30.24	30.39	30.44	30.57	30.84	31.13	31.18	30.71	29.55	27.73	25.45	22.95	20.37	17.79	15.24	12.79	10.62	8.86	7.51	6.44	5.31	3.83	1.8	-0.73	-3.55	-6.41	-9.08	-11.5	-13.68	-15.76	-17.93	-20.36	-23.12	-26.11	-29.11	-31.87	-34.28	-36.46	-38.75	-41.64	-45.6	-50.88	-57.4	-64.64	-71.52	-76.55	-78.07	-74.78	-66.17	-52.93	-36.78	-20.04	-4.87	7.34	16.12	21.8	25.02	26.39	26.3	25.09	23.15	21.02	19.34	18.6	18.97	20.26	22.09	24.01	25.76	27.29	28.61	29.75	30.65	31.16	31.12	30.36	28.79	26.42	23.37	19.95	16.53	13.52	11.2	9.59	8.44	7.28	5.71	3.55	0.96	-1.68	-3.95	-5.69	-7.03	-8.37	-10.2	-12.86	-16.44	-20.71	-25.21	-29.47	-33.15	-36.21	-38.9	-41.67	-45.09	-49.71	-55.83	-63.41	-71.77
-76.55	-78.07	-74.78	-66.17	-52.93	-36.78	-20.04	-4.87	7.34	16.12	21.8	25.02	26.39	26.3	25.09	23.15	21.02	19.34	18.6	18.97	20.26	22.09	24.01	25.76	27.29	28.61	29.75	30.65	31.16	31.12	30.36	28.79	26.42	23.37	19.95	16.53	13.52	11.2	9.59	8.44	7.28	5.71	3.55	0.96	-1.68	-3.95	-5.69	-7.03	-8.37	-10.2	-12.86	-16.44	-20.71	-25.21	-29.47	-33.15	-36.21	-38.9	-41.67	-45.09	-49.71	-55.83	-63.41	-71.77	-79.57	-84.98	-86.05	-81.38	-70.66	-55.03	-36.75	-18.57	-2.84	9.11	17.18	22.19	25.28	27.49	29.39	31.15	32.77	34.18	35.39	36.46	37.38	38.06	38.44	38.49	38.34	38.25	38.5	39.23	40.31	41.39	41.98	41.69	40.37	38.15	35.38	32.46	29.63	26.99	24.45	21.89	19.21	16.39	13.41	10.29	7.03	3.71	0.51	-2.42	-5.04	-7.53	-10.27	-13.7	-18	-23.02	-28.27	-33.19	-37.44	-41.05	-44.51	-48.55	-53.85	-60.76	-69.07	-77.88
-79.57	-84.98	-86.05	-81.38	-70.66	-55.03	-36.75	-18.57	-2.84	9.11	17.18	22.19	25.28	27.49	29.39	31.15	32.77	34.18	35.39	36.46	37.38	38.06	38.44	38.49	38.34	38.25	38.5	39.23	40.31	41.39	41.98	41.69	40.37	38.15	35.38	32.46	29.63	26.99	24.45	21.89	19.21	16.39	13.41	10.29	7.03	3.71	0.51	-2.42	-5.04	-7.53	-10.27	-13.7	-18	-23.02	-28.27	-33.19	-37.44	-41.05	-44.51	-48.55	-53.85	-60.76	-69.07	-77.88	-85.69	-90.63	-90.91	-85.4	-74.05	-58.14	-39.93	-22.08	-6.8	4.71	12.44	17.24	20.3	22.57	24.49	26.1	27.23	27.88	28.3	28.84	29.78	31.13	32.63	33.91	34.77	35.28	35.77	36.57	37.81	39.29	40.51	40.92	40.18	38.23	35.37	32.05	28.77	25.91	23.61	21.76	20.06	18.11	15.64	12.58	9.21	5.94	3.17	1.01	-0.77	-2.66	-5.16	-8.55	-12.78	-17.49	-22.18	-26.41	-29.94	-32.85	-35.46	-38.28	-41.87	-46.7	-52.98	-60.38
-85.69	-90.63	-90.91	-85.4	-74.05	-58.14	-39.93	-22.08	-6.8	4.71	12.44	17.24	20.3	22.57	24.49	26.1	27.23	27.88	28.3	28.84	29.78	31.13	32.63	33.91	34.77	35.28	35.77	36.57	37.81	39.29	40.51	40.92	40.18	38.23	35.37	32.05	28.77	25.91	23.61	21.76	20.06	18.11	15.64	12.58	9.21	5.94	3.17	1.01	-0.77	-2.66	-5.16	-8.55	-12.78	-17.49	-22.18	-26.41	-29.94	-32.85	-35.46	-38.28	-41.87	-46.7	-52.98	-60.38	-67.95	-74.15	-77.12	-75.27	-67.85	-55.34	-39.35	-22.22	-6.24	7	16.91	23.74	28.21	31.02	32.66	33.44	33.63	33.52	33.47	33.83	34.72	36.03	37.52	38.91	40.01	40.86	41.59	42.42	43.41	44.5	45.38	45.66	45.02	43.33	40.74	37.65	34.58	31.95	29.98	28.54	27.26	25.65	23.39	20.47	17.23	14.26	12.01	10.61	9.69	8.62	6.78	3.93	0.35	-3.35	-6.43	-8.42	-9.22	-9.19	-9.07	-9.82	-12.43	-17.58	-25.45	-35.33
-67.95	-74.15	-77.12	-75.27	-67.85	-55.34	-39.35	-22.22	-6.24	7	16.91	23.74	28.21	31.02	32.66	33.44	33.63	33.52	33.47	33.83	34.72	36.03	37.52	38.91	40.01	40.86	41.59	42.42	43.41	44.5	45.38	45.66	45.02	43.33	40.74	37.65	34.58	31.95	29.98	28.54	27.26	25.65	23.39	20.47	17.23	14.26	12.01	10.61	9.69	8.62	6.78	3.93	0.35	-3.35	-6.43	-8.42	-9.22	-9.19	-9.07	-9.82	-12.43	-17.58	-25.45	-35.33	-45.6	-53.98	-58.12	-56.3	-48.12	-34.86	-19.2	-4.47	6.31	11.32	10.41	4.93	-2.98	-11.07	-17.74	-22.23	-24.53	-25.04	-24.25	-22.56	-20.31	-17.79	-15.34	-13.25	-11.69	-10.64	-9.93	-9.35	-8.77	-8.23	-7.9	-7.99	-8.62	-9.66	-10.76	-11.47	-11.39	-10.31	-8.35	-5.91	-3.53	-1.75	-0.98	-1.34	-2.68	-4.62	-6.75	-8.75	-10.47	-11.89	-13.06	-14.04	-14.94	-15.93	-17.24	-19.11	-21.63	-24.63	-27.75	-30.57	-32.86	-34.83	-37.06	-40.46
-45.6	-53.98	-58.12	-56.3	-48.12	-34.86	-19.2	-4.47	6.31	11.32	10.41	4.93	-2.98	-11.07	-17.74	-22.23	-24.53	-25.04	-24.25	-22.56	-20.31	-17.79	-15.34	-13.25	-11.69	-10.64	-9.93	-9.35	-8.77	-8.23	-7.9	-7.99	-8.62	-9.66	-10.76	-11.47	-11.39	-10.31	-8.35	-5.91	-3.53	-1.75	-0.98	-1.34	-2.68	-4.62	-6.75	-8.75	-10.47	-11.89	-13.06	-14.04	-14.94	-15.93	-17.24	-19.11	-21.63	-24.63	-27.75	-30.57	-32.86	-34.83	-37.06	-40.46	-45.81	-53.46	-62.98	-73.04	-81.52	-86.01	-84.53	-76.26	-61.89	-43.55	-24.1	-6.24	8.28	18.97	26.4	31.67	35.85	39.7	43.5	47.28	50.97	54.46	57.74	60.75	63.4	65.49	66.88	67.55	67.73	67.81	68.26	69.3	70.86	72.49	73.61	73.71	72.59	70.42	67.67	64.85	62.38	60.39	58.72	57.05	55.08	52.64	49.81	46.79	43.82	41.04	38.45	35.96	33.47	30.93	28.32	25.6	22.63	19.26	15.38	11.07	6.56	2.14	-1.95	-5.71
-45.81	-53.46	-62.98	-73.04	-81.52	-86.01	-84.53	-76.26	-61.89	-43.55	-24.1	-6.24	8.28	18.97	26.4	31.67	35.85	39.7	43.5	47.28	50.97	54.46	57.74	60.75	63.4	65.49	66.88	67.55	67.73	67.81	68.26	69.3	70.86	72.49	73.61	73.71	72.59	70.42	67.67	64.85	62.38	60.39	58.72	57.05	55.08	52.64	49.81	46.79	43.82	41.04	38.45	35.96	33.47	30.93	28.32	25.6	22.63	19.26	15.38	11.07	6.56	2.14	-1.95	-5.71	-9.32	-12.99	-16.75	-20.39	-23.51	-25.76	-27.09	-27.89	-28.96	-31.25	-35.54	-42.1	-50.43	-59.28	-66.87	-71.24	-70.8	-64.81	-53.52	-38.18	-20.68	-3.02	13.22	27.09	38.37	47.28	54.27	59.68	63.76	66.56	68.14	68.56	67.98	66.57	64.53	62.05	59.34	56.7	54.43	52.81	51.95	51.73	51.8	51.65	50.82	49.01	46.14	42.42	38.17	33.77	29.45	25.24	20.9	16.03	10.3	3.59	-3.86	-11.4	-18.23	-23.68	-27.47	-29.81	-31.36	-32.89
-9.32	-12.99	-16.75	-20.39	-23.51	-25.76	-27.09	-27.89	-28.96	-31.25	-35.54	-42.1	-50.43	-59.28	-66.87	-71.24	-70.8	-64.81	-53.52	-38.18	-20.68	-3.02	13.22	27.09	38.37	47.28	54.27	59.68	63.76	66.56	68.14	68.56	67.98	66.57	64.53	62.05	59.34	56.7	54.43	52.81	51.95	51.73	51.8	51.65	50.82	49.01	46.14	42.42	38.17	33.77	29.45	25.24	20.9	16.03	10.3	3.59	-3.86	-11.4	-18.23	-23.68	-27.47	-29.81	-31.36	-32.89	-35.03	-38.02	-41.7	-45.64	-49.3	-52.33	-54.61	-56.39	-58.16	-60.53	-64	-68.74	-74.49	-80.62	-86.36	-91.13	-94.84	-97.95	-101.31	-105.81	-112.02	-119.84	-128.41	-136.2	-141.23	-141.63	-136.09	-124.3	-107.11	-86.36	-64.39	-43.5	-25.41	-11.02	-0.39	6.99	12.02	15.62	18.59	21.41	24.19	26.8	28.99	30.61	31.73	32.59	33.48	34.6	35.92	37.27	38.48	39.37	39.89	39.98	39.57	38.45	36.44	33.48	29.75	25.7	21.96	19.15	17.64	17.41
-35.03	-38.02	-41.7	-45.64	-49.3	-52.33	-54.61	-56.39	-58.16	-60.53	-64	-68.74	-74.49	-80.62	-86.36	-91.13	-94.84	-97.95	-101.31	-105.81	-112.02	-119.84	-128.41	-136.2	-141.23	-141.63	-136.09	-124.3	-107.11	-86.36	-64.39	-43.5	-25.41	-11.02	-0.39	6.99	12.02	15.62	18.59	21.41	24.19	26.8	28.99	30.61	31.73	32.59	33.48	34.6	35.92	37.27	38.48	39.37	39.89	39.98	39.57	38.45	36.44	33.48	29.75	25.7	21.96	19.15	17.64	17.41	18.03	18.84	19.2	18.65	17.08	14.69	11.83	8.88	6.15	3.76	1.65	-0.35	-2.53	-5.19	-8.48	-12.37	-16.57	-20.66	-24.27	-27.25	-29.77	-32.24	-35.23	-39.24	-44.52	-50.88	-57.59	-63.37	-66.57	-65.62	-59.47	-48.07	-32.53	-14.84	2.64	17.8	29.32	36.86	40.85	42.25	42.07	41.23	40.35	39.81	39.78	40.26	41.15	42.28	43.52	44.73	45.84	46.87	47.94	49.21	50.77	52.63	54.55	56.17	57.09	57	55.9	54	51.67	49.28
18.03	18.84	19.2	18.65	17.08	14.69	11.83	8.88	6.15	3.76	1.65	-0.35	-2.53	-5.19	-8.48	-12.37	-16.57	-20.66	-24.27	-27.25	-29.77	-32.24	-35.23	-39.24	-44.52	-50.88	-57.59	-63.37	-66.57	-65.62	-59.47	-48.07	-32.53	-14.84	2.64	17.8	29.32	36.86	40.85	42.25	42.07	41.23	40.35	39.81	39.78	40.26	41.15	42.28	43.52	44.73	45.84	46.87	47.94	49.21	50.77	52.63	54.55	56.17	57.09	57	55.9	54	51.67	49.28	47.01	44.86	42.72	40.53	38.29	36.07	33.95	31.9	29.74	27.24	24.21	20.62	16.69	12.79	9.32	6.52	4.35	2.49	0.45	-2.16	-5.52	-9.51	-13.81	-18.07	-22.04	-25.68	-29.13	-32.71	-36.87	-42.13	-48.98	-57.57	-67.41	-77.23	-85.03	-88.61	-86.27	-77.43	-62.97	-44.99	-26.12	-8.79	5.4	15.89	22.9	27.16	29.49	30.65	31.28	32	33.34	35.65	39.11	43.66	49.06	54.98	61.11	67.17	72.98	78.38	83.27	87.46	90.67	92.6
47.01	44.86	42.72	40.53	38.29	36.07	33.95	31.9	29.74	27.24	24.21	20.62	16.69	12.79	9.32	6.52	4.35	2.49	0.45	-2.16	-5.52	-9.51	-13.81	-18.07	-22.04	-25.68	-29.13	-32.71	-36.87	-42.13	-48.98	-57.57	-67.41	-77.23	-85.03	-88.61	-86.27	-77.43	-62.97	-44.99	-26.12	-8.79	5.4	15.89	22.9	27.16	29.49	30.65	31.28	32	33.34	35.65	39.11	43.66	49.06	54.98	61.11	67.17	72.98	78.38	83.27	87.46	90.67	92.6	92.92	91.58	88.84	85.23	81.47	78.17	75.72	74.23	73.61	73.71	74.35	75.36	76.53	77.56	78.17	78.01	76.8	74.33	70.54	65.56	59.74	53.6	47.63	42.18	37.29	32.78	28.34	23.74	19.07	14.69	11.16	9.08	8.88	10.63	14.08	18.6	23.37	27.5	30.19	30.9	29.41	25.86	20.66	14.38	7.57	0.62	-6.14	-12.41	-17.95	-22.49	-25.94	-28.45	-30.44	-32.44	-34.89	-38.02	-41.8	-46.09	-50.65	-55.36	-60.13	-64.85	-69.34	-73.35
92.92	91.58	88.84	85.23	81.47	78.17	75.72	74.23	73.61	73.71	74.35	75.36	76.53	77.56	78.17	78.01	76.8	74.33	70.54	65.56	59.74	53.6	47.63	42.18	37.29	32.78	28.34	23.74	19.07	14.69	11.16	9.08	8.88	10.63	14.08	18.6	23.37	27.5	30.19	30.9	29.41	25.86	20.66	14.38	7.57	0.62	-6.14	-12.41	-17.95	-22.49	-25.94	-28.45	-30.44	-32.44	-34.89	-38.02	-41.8	-46.09	-50.65	-55.36	-60.13	-64.85	-69.34	-73.35	-76.62	-79.01	-80.57	-81.58	-82.41	-83.35	-84.47	-85.51	-86.02	-85.58	-84.05	-81.69	-79.02	-76.59	-74.68	-73.23	-71.95	-70.53	-68.85	-67.01	-65.31	-63.99	-63.15	-62.67	-62.33	-61.82	-60.87	-59.22	-56.71	-53.27	-48.96	-44.04	-38.92	-34.01	-29.69	-26.13	-23.35	-21.23	-19.65	-18.54	-17.92	-17.75	-17.95	-18.29	-18.51	-18.38	-17.78	-16.71	-15.35	-14.01	-12.97	-12.5	-12.71	-13.55	-14.75	-15.94	-16.66	-16.6	-15.66	-14.06	-12.23	-10.69	-9.84	-9.86
-76.62	-79.01	-80.57	-81.58	-82.41	-83.35	-84.47	-85.51	-86.02	-85.58	-84.05	-81.69	-79.02	-76.59	-74.68	-73.23	-71.95	-70.53	-68.85	-67.01	-65.31	-63.99	-63.15	-62.67	-62.33	-61.82	-60.87	-59.22	-56.71	-53.27	-48.96	-44.04	-38.92	-34.01	-29.69	-26.13	-23.35	-21.23	-19.65	-18.54	-17.92	-17.75	-17.95	-18.29	-18.51	-18.38	-17.78	-16.71	-15.35	-14.01	-12.97	-12.5	-12.71	-13.55	-14.75	-15.94	-16.66	-16.6	-15.66	-14.06	-12.23	-10.69	-9.84	-9.86	-10.66	-11.95	-13.4	-14.75	-15.89	-16.86	-17.81	-18.9	-20.2	-21.73	-23.4	-25.11	-26.73	-28.16	-29.35	-30.26	-30.99	-31.61	-32.26	-33.08	-34.1	-35.2	-36.15	-36.61	-36.34	-35.24	-33.4	-31.02	-28.34	-25.58	-22.97	-20.73	-19.11	-18.28	-18.26	-18.9	-19.87	-20.77	-21.3	-21.32	-20.83	-19.94	-18.76	-17.38	-15.84	-14.21	-12.55	-10.89	-9.28	-7.73	-6.24	-4.78	-3.32	-1.78	-0.03	2.03	4.43	7.01	9.46	11.3	12.1	11.61	9.81	6.96
-10.66	-11.95	-13.4	-14.75	-15.89	-16.86	-17.81	-18.9	-20.2	-21.73	-23.4	-25.11	-26.73	-28.16	-29.35	-30.26	-30.99	-31.61	-32.26	-33.08	-34.1	-35.2	-36.15	-36.61	-36.34	-35.24	-33.4	-31.02	-28.34	-25.58	-22.97	-20.73	-19.11	-18.28	-18.26	-18.9	-19.87	-20.77	-21.3	-21.32	-20.83	-19.94	-18.76	-17.38	-15.84	-14.21	-12.55	-10.89	-9.28	-7.73	-6.24	-4.78	-3.32	-1.78	-0.03	2.03	4.43	7.01	9.46	11.3	12.1	11.61	9.81	6.96	3.41	-0.47	-4.34	-7.92	-10.92	-13.05	-14.1	-14.05	-13.16	-11.97	-11.08	-11.01	-11.89	-13.51	-15.42	-17.19	-18.63	-19.88	-21.29	-23.26	-26.02	-29.43	-32.99	-35.94	-37.51	-37.11	-34.58	-30.27	-24.85	-19.17	-13.9	-9.43	-5.8	-2.91	-0.67	0.95	1.97	2.47	2.7	2.95	3.43	4.07	4.61	4.69	4.18	3.28	2.56	2.69	4.06	6.65	9.98	13.33	16.12	18.07	19.24	19.84	20.1	20.11	19.89	19.49	19.09	18.89	19.04	19.38
3.41	-0.47	-4.34	-7.92	-10.92	-13.05	-14.1	-14.05	-13.16	-11.97	-11.08	-11.01	-11.89	-13.51	-15.42	-17.19	-18.63	-19.88	-21.29	-23.26	-26.02	-29.43	-32.99	-35.94	-37.51	-37.11	-34.58	-30.27	-24.85	-19.17	-13.9	-9.43	-5.8	-2.91	-0.67	0.95	1.97	2.47	2.7	2.95	3.43	4.07	4.61	4.69	4.18	3.28	2.56	2.69	4.06	6.65	9.98	13.33	16.12	18.07	19.24	19.84	20.1	20.11	19.89	19.49	19.09	18.89	19.04	19.38	19.47	18.79	16.94	13.88	10	5.89	2.08	-1.14	-3.75	-5.9	-7.79	-9.54	-11.21	-12.81	-14.35	-15.77	-17.04	-18.14	-19.19	-20.56	-22.81	-26.57	-32.24	-39.79	-48.58	-57.45	-64.92	-69.48	-69.98	-65.91	-57.67	-46.47	-34.04	-22.21	-12.38	-5.33	-1.07	0.81	0.84	-0.62	-3.43	-7.65	-13.19	-19.71	-26.56	-32.97	-38.28	-42.17	-44.64	-45.93	-46.22	-45.52	-43.68	-40.52	-36.05	-30.59	-24.68	-18.91	-13.68	-9.13	-5.18	-1.73	1.26	3.69
19.47	18.79	16.94	13.88	10	5.89	2.08	-1.14	-3.75	-5.9	-7.79	-9.54	-11.21	-12.81	-14.35	-15.77	-17.04	-18.14	-19.19	-20.56	-22.81	-26.57	-32.24	-39.79	-48.58	-57.45	-64.92	-69.48	-69.98	-65.91	-57.67	-46.47	-34.04	-22.21	-12.38	-5.33	-1.07	0.81	0.84	-0.62	-3.43	-7.65	-13.19	-19.71	-26.56	-32.97	-38.28	-42.17	-44.64	-45.93	-46.22	-45.52	-43.68	-40.52	-36.05	-30.59	-24.68	-18.91	-13.68	-9.13	-5.18	-1.73	1.26	3.69	5.37	6.07	5.6	3.82	0.71	-3.56	-8.67	-14.13	-19.4	-24.1	-28.16	-31.77	-35.29	-38.97	-42.76	-46.38	-49.48	-51.95	-54.14	-56.79	-60.94	-67.59	-77.23	-89.62	-103.51	-116.81	-126.93	-131.33	-128.2	-116.95	-98.45	-74.87	-49.18	-24.48	-3.25	13.15	24.53	31.8	36.31	39.4	41.93	44.2	46.12	47.59	48.76	50.11	52.29	55.75	60.6	66.47	72.74	78.81	84.21	88.72	92.23	94.57	95.5	94.75	92.21	88.09	82.94	77.52	72.55	68.45
5.37	6.07	5.6	3.82	0.71	-3.56	-8.67	-14.13	-19.4	-24.1	-28.16	-31.77	-35.29	-38.97	-42.76	-46.38	-49.48	-51.95	-54.14	-56.79	-60.94	-67.59	-77.23	-89.62	-103.51	-116.81	-126.93	-131.33	-128.2	-116.95	-98.45	-74.87	-49.18	-24.48	-3.25	13.15	24.53	31.8	36.31	39.4	41.93	44.2	46.12	47.59	48.76	50.11	52.29	55.75	60.6	66.47	72.74	78.81	84.21	88.72	92.23	94.57	95.5	94.75	92.21	88.09	82.94	77.52	72.55	68.45	65.21	62.4	59.38	55.57	50.69	44.78	38.23	31.52	25.04	18.99	13.31	7.79	2.1	-4.1	-11.2	-19.6	-29.69	-41.67	-55.17	-69	-81.13	-88.99	-90.23	-83.45	-68.73	-47.67	-22.92	2.57	26.23	46.33	61.95	72.9	79.42	82.13	81.91	79.91	77.31	75.17	74.17	74.49	75.87	77.83	79.9	81.79	83.52	85.25	87.12	89.12	90.97	92.2	92.26	90.66	87.19	81.97	75.48	68.49	61.81	56.01	51.17	46.93	42.57	37.5	31.43	24.61
65.21	62.4	59.38	55.57	50.69	44.78	38.23	31.52	25.04	18.99	13.31	7.79	2.1	-4.1	-11.2	-19.6	-29.69	-41.67	-55.17	-69	-81.13	-88.99	-90.23	-83.45	-68.73	-47.67	-22.92	2.57	26.23	46.33	61.95	72.9	79.42	82.13	81.91	79.91	77.31	75.17	74.17	74.49	75.87	77.83	79.9	81.79	83.52	85.25	87.12	89.12	90.97	92.2	92.26	90.66	87.19	81.97	75.48	68.49	61.81	56.01	51.17	46.93	42.57	37.5	31.43	24.61	17.55	10.8	4.66	-0.96	-6.53	-12.73	-20.29	-29.77	-41.34	-54.51	-67.88	-79.22	-85.84	-85.37	-76.53	-59.67	-36.76	-10.82	14.94	37.9	56.5	70.28	79.52	84.88	87.08	86.79	84.64	81.29	77.58	74.42	72.73	73.16	75.9	80.57	86.33	92.2	97.33	101.24	103.82	105.14	105.26	104.04	101.27	96.83	90.89	83.97	76.76	69.89	63.64	57.91	52.28	46.22	39.3	31.39	22.58	13.18	3.6	-5.8	-14.69	-22.86	-30.3	-37.21	-44.13	-51.87
17.55	10.8	4.66	-0.96	-6.53	-12.73	-20.29	-29.77	-41.34	-54.51	-67.88	-79.22	-85.84	-85.37	-76.53	-59.67	-36.76	-10.82	14.94	37.9	56.5	70.28	79.52	84.88	87.08	86.79	84.64	81.29	77.58	74.42	72.73	73.16	75.9	80.57	86.33	92.2	97.33	101.24	103.82	105.14	105.26	104.04	101.27	96.83	90.89	83.97	76.76	69.89	63.64	57.91	52.28	46.22	39.3	31.39	22.58	13.18	3.6	-5.8	-14.69	-22.86	-30.3	-37.21	-44.13	-51.87	-61.35	-73.21	-87.42	-102.76	-116.86	-126.57	-128.85	-121.83	-105.57	-82.11	-54.91	-27.78	-3.85	15.1	28.69	37.65	43.16	46.53	48.85	51	53.5	56.62	60.24	64	67.41	70	71.51	72	71.79	71.4	71.31	71.72	72.5	73.16	73.1	71.85	69.27	65.62	61.39	57.09	53.02	49.14	45.07	40.37	34.77	28.32	21.49	14.9	9.12	4.32	0.21	-3.81	-8.45	-14.12	-20.84	-28.18	-35.51	-42.28	-48.17	-53.23	-57.88	-62.85	-68.98	-77.02
-61.35	-73.21	-87.42	-102.76	-116.86	-126.57	-128.85	-121.83	-105.57	-82.11	-54.91	-27.78	-3.85	15.1	28.69	37.65	43.16	46.53	48.85	51	53.5	56.62	60.24	64	67.41	70	71.51	72	71.79	71.4	71.31	71.72	72.5	73.16	73.1	71.85	69.27	65.62	61.39	57.09	53.02	49.14	45.07	40.37	34.77	28.32	21.49	14.9	9.12	4.32	0.21	-3.81	-8.45	-14.12	-20.84	-28.18	-35.51	-42.28	-48.17	-53.23	-57.88	-62.85	-68.98	-77.02	-87.19	-98.85	-110.33	-119.07	-122.3	-117.92	-105.31	-85.67	-61.83	-37.24	-15.11	2.56	15.24	23.64	29.13	33.13	36.71	40.34	44.1	47.76	51.03	53.76	55.89	57.51	58.73	59.62	60.25	60.67	61.02	61.4	61.85	62.26	62.38	61.93	60.73	58.77	56.24	53.4	50.43	47.46	44.5	41.51	38.38	35.01	31.31	27.27	22.95	18.55	14.32	10.48	7.11	4.12	1.23	-1.94	-5.83	-10.73	-16.63	-23.2	-29.79	-35.68	-40.44	-44.06	-47.1	-50.46
-87.19	-98.85	-110.33	-119.07	-122.3	-117.92	-105.31	-85.67	-61.83	-37.24	-15.11	2.56	15.24	23.64	29.13	33.13	36.71	40.34	44.1	47.76	51.03	53.76	55.89	57.51	58.73	59.62	60.25	60.67	61.02	61.4	61.85	62.26	62.38	61.93	60.73	58.77	56.24	53.4	50.43	47.46	44.5	41.51	38.38	35.01	31.31	27.27	22.95	18.55	14.32	10.48	7.11	4.12	1.23	-1.94	-5.83	-10.73	-16.63	-23.2	-29.79	-35.68	-40.44	-44.06	-47.1	-50.46	-55.09	-61.63	-70.19	-80.2	-90.39	-98.93	-103.76	-103.13	-96.12	-83.06	-65.56	-46.05	-27.03	-10.46	2.67	12.26	18.83	23.17	26.04	28.09	29.77	31.36	32.95	34.53	36.03	37.41	38.66	39.76	40.66	41.3	41.68	41.9	42.14	42.56	43.11	43.56	43.53	42.69	41	38.72	36.27	34.05	32.12	30.26	28.08	25.31	22.05	18.68	15.7	13.43	11.8	10.37	8.57	6.03	2.72	-1.05	-4.85	-8.33	-11.4	-14.2	-16.99	-19.98	-23.31	-27
-55.09	-61.63	-70.19	-80.2	-90.39	-98.93	-103.76	-103.13	-96.12	-83.06	-65.56	-46.05	-27.03	-10.46	2.67	12.26	18.83	23.17	26.04	28.09	29.77	31.36	32.95	34.53	36.03	37.41	38.66	39.76	40.66	41.3	41.68	41.9	42.14	42.56	43.11	43.56	43.53	42.69	41	38.72	36.27	34.05	32.12	30.26	28.08	25.31	22.05	18.68	15.7	13.43	11.8	10.37	8.57	6.03	2.72	-1.05	-4.85	-8.33	-11.4	-14.2	-16.99	-19.98	-23.31	-27	-30.96	-35.03	-39.02	-42.76	-46.19	-49.45	-52.99	-57.46	-63.44	-71.04	-79.55	-87.43	-92.57	-92.94	-87.34	-75.83	-59.78	-41.53	-23.63	-8.23	3.38	10.95	15.06	16.79	17.31	17.52	17.88	18.48	19.18	19.9	20.65	21.48	22.43	23.35	24.03	24.25	24	23.51	23.11	23.02	23.22	23.4	23.06	21.79	19.44	16.19	12.51	8.93	5.86	3.45	1.56	-0.08	-1.73	-3.49	-5.26	-6.85	-8.09	-8.94	-9.46	-9.77	-9.89	-9.73	-9.18	-8.18
-30.96	-35.03	-39.02	-42.76	-46.19	-49.45	-52.99	-57.46	-63.44	-71.04	-79.55	-87.43	-92.57	-92.94	-87.34	-75.83	-59.78	-41.53	-23.63	-8.23	3.38	10.95	15.06	16.79	17.31	17.52	17.88	18.48	19.18	19.9	20.65	21.48	22.43	23.35	24.03	24.25	24	23.51	23.11	23.02	23.22	23.4	23.06	21.79	19.44	16.19	12.51	8.93	5.86	3.45	1.56	-0.08	-1.73	-3.49	-5.26	-6.85	-8.09	-8.94	-9.46	-9.77	-9.89	-9.73	-9.18	-8.18	-6.91	-5.76	-5.2	-5.6	-7.05	-9.32	-12	-14.68	-17.17	-19.53	-22.09	-25.32	-29.66	-35.4	-42.44	-50.2	-57.53	-62.91	-64.75	-61.99	-54.4	-42.76	-28.7	-14.22	-1.17	9.22	16.44	20.72	22.69	23.14	22.76	22.04	21.25	20.53	19.92	19.5	19.31	19.39	19.72	20.32	21.09	21.97	22.81	23.43	23.65	23.35	22.58	21.5	20.4	19.48	18.77	18.11	17.22	15.91	14.14	12.03	9.76	7.43	5.1	2.75	0.43	-1.7	-3.52	-4.97
-6.91	-5.76	-5.2	-5.6	-7.05	-9.32	-12	-14.68	-17.17	-19.53	-22.09	-25.32	-29.66	-35.4	-42.44	-50.2	-57.53	-62.91	-64.75	-61.99	-54.4	-42.76	-28.7	-14.22	-1.17	9.22	16.44	20.72	22.69	23.14	22.76	22.04	21.25	20.53	19.92	19.5	19.31	19.39	19.72	20.32	21.09	21.97	22.81	23.43	23.65	23.35	22.58	21.5	20.4	19.48	18.77	18.11	17.22	15.91	14.14	12.03	9.76	7.43	5.1	2.75	0.43	-1.7	-3.52	-4.97	-6.19	-7.43	-9	-11.05	-13.53	-16.27	-19.06	-21.85	-24.69	-27.73	-30.96	-34.24	-37.29	-39.88	-42.07	-44.22	-46.96	-51.01	-56.87	-64.57	-73.51	-82.35	-89.31	-92.48	-90.39	-82.57	-69.77	-53.84	-37.13	-21.82	-9.28	0.05	6.55	10.87	13.63	15.21	15.84	15.79	15.45	15.27	15.65	16.74	18.39	20.22	21.85	23.05	23.89	24.66	25.67	27.04	28.59	29.9	30.47	30.04	28.63	26.55	24.22	21.98	20.05	18.49	17.25	16.24	15.29	14.16
-6.19	-7.43	-9	-11.05	-13.53	-16.27	-19.06	-21.85	-24.69	-27.73	-30.96	-34.24	-37.29	-39.88	-42.07	-44.22	-46.96	-51.01	-56.87	-64.57	-73.51	-82.35	-89.31	-92.48	-90.39	-82.57	-69.77	-53.84	-37.13	-21.82	-9.28	0.05	6.55	10.87	13.63	15.21	15.84	15.79	15.45	15.27	15.65	16.74	18.39	20.22	21.85	23.05	23.89	24.66	25.67	27.04	28.59	29.9	30.47	30.04	28.63	26.55	24.22	21.98	20.05	18.49	17.25	16.24	15.29	14.16	12.57	10.33	7.47	4.26	1.14	-1.47	-3.42	-4.88	-6.3	-8.17	-10.87	-14.41	-18.55	-22.84	-26.82	-30.15	-32.78	-34.88	-36.93	-39.6	-43.56	-49.28	-56.68	-65.04	-72.89	-78.35	-79.62	-75.54	-66.01	-52.09	-35.74	-19.18	-4.39	7.42	15.86	21.22	24.18	25.48	25.78	25.59	25.37	25.41	25.91	26.85	28.01	29.09	29.82	30.12	30.14	30.15	30.41	31.01	31.8	32.43	32.56	31.97	30.64	28.8	26.76	24.77	22.96	21.25	19.48	17.51
12.57	10.33	7.47	4.26	1.14	-1.47	-3.42	-4.88	-6.3	-8.17	-10.87	-14.41	-18.55	-22.84	-26.82	-30.15	-32.78	-34.88	-36.93	-39.6	-43.56	-49.28	-56.68	-65.04	-72.89	-78.35	-79.62	-75.54	-66.01	-52.09	-35.74	-19.18	-4.39	7.42	15.86	21.22	24.18	25.48	25.78	25.59	25.37	25.41	25.91	26.85	28.01	29.09	29.82	30.12	30.14	30.15	30.41	31.01	31.8	32.43	32.56	31.97	30.64	28.8	26.76	24.77	22.96	21.25	19.48	17.51	15.23	12.71	10.02	7.27	4.5	1.71	-1.16	-4.16	-7.22	-10.26	-13.14	-15.8	-18.26	-20.66	-23.21	-26.1	-29.33	-32.76	-36.11	-39.13	-41.71	-43.96	-46.18	-48.82	-52.28	-56.83	-62.4	-68.42	-73.76	-76.79	-75.8	-69.52	-57.66	-41.19	-22.12	-2.91	14.23	27.97	37.94	44.49	48.29	49.99	50.12	49.17	47.69	46.31	45.54	45.65	46.56	47.93	49.36	50.54	51.3	51.57	51.31	50.4	48.71	46.1	42.47	37.83	32.28	26.08	19.6	13.34
15.23	12.71	10.02	7.27	4.5	1.71	-1.16	-4.16	-7.22	-10.26	-13.14	-15.8	-18.26	-20.66	-23.21	-26.1	-29.33	-32.76	-36.11	-39.13	-41.71	-43.96	-46.18	-48.82	-52.28	-56.83	-62.4	-68.42	-73.76	-76.79	-75.8	-69.52	-57.66	-41.19	-22.12	-2.91	14.23	27.97	37.94	44.49	48.29	49.99	50.12	49.17	47.69	46.31	45.54	45.65	46.56	47.93	49.36	50.54	51.3	51.57	51.31	50.4	48.71	46.1	42.47	37.83	32.28	26.08	19.6	13.34	7.75	3.21	-0.19	-2.62	-4.43	-6.03	-7.74	-9.75	-12.1	-14.77	-17.6	-20.41	-22.9	-24.8	-25.87	-26.09	-25.69	-25.18	-25.18	-26.2	-28.48	-31.87	-35.83	-39.71	-42.91	-45.17	-46.6	-47.7	-49.27	-52.12	-56.78	-63.23	-70.74	-77.83	-82.64	-83.46	-79.19	-69.73	-56.03	-39.77	-22.96	-7.48	5.27	14.5	20.08	22.51	22.66	21.59	20.18	18.96	18.08	17.45	16.99	16.83	17.26	18.61	20.92	23.91	26.99	29.59	31.36	32.27	32.41	31.86
7.75	3.21	-0.19	-2.62	-4.43	-6.03	-7.74	-9.75	-12.1	-14.77	-17.6	-20.41	-22.9	-24.8	-25.87	-26.09	-25.69	-25.18	-25.18	-26.2	-28.48	-31.87	-35.83	-39.71	-42.91	-45.17	-46.6	-47.7	-49.27	-52.12	-56.78	-63.23	-70.74	-77.83	-82.64	-83.46	-79.19	-69.73	-56.03	-39.77	-22.96	-7.48	5.27	14.5	20.08	22.51	22.66	21.59	20.18	18.96	18.08	17.45	16.99	16.83	17.26	18.61	20.92	23.91	26.99	29.59	31.36	32.27	32.41	31.86	30.51	28.28	25.24	21.79	18.49	15.88	14.08	12.75	11.31	9.24	6.47	3.31	0.33	-2.03	-3.64	-4.81	-6.09	-8.02	-10.94	-14.8	-19.25	-23.71	-27.61	-30.6	-32.67	-34.17	-35.77	-38.23	-42.14	-47.67	-54.33	-60.95	-65.83	-67.2	-63.81	-55.36	-42.7	-27.55	-11.94	2.32	14	22.59	28.08	30.8	31.27	30.08	27.96	25.69	24.03	23.55	24.44	26.53	29.32	32.18	34.61	36.36	37.55	38.52	39.58	40.83	42.06	42.94	43.15	42.63
30.51	28.28	25.24	21.79	18.49	15.88	14.08	12.75	11.31	9.24	6.47	3.31	0.33	-2.03	-3.64	-4.81	-6.09	-8.02	-10.94	-14.8	-19.25	-23.71	-27.61	-30.6	-32.67	-34.17	-35.77	-38.23	-42.14	-47.67	-54.33	-60.95	-65.83	-67.2	-63.81	-55.36	-42.7	-27.55	-11.94	2.32	14	22.59	28.08	30.8	31.27	30.08	27.96	25.69	24.03	23.55	24.44	26.53	29.32	32.18	34.61	36.36	37.55	38.52	39.58	40.83	42.06	42.94	43.15	42.63	41.59	40.42	39.42	38.74	38.27	37.75	36.88	35.44	33.36	30.78	28.04	25.61	24.09	23.99	25.52	28.45	31.96	34.86	35.91	34.22	29.57	22.46	13.91	5.07	-3.24	-10.67	-17.42	-24.04	-31.14	-39.15	-48.09	-57.48	-66.33	-73.3	-77	-76.39	-71.16	-61.88	-49.9	-37.03	-25.03	-15.25	-8.29	-4.1	-2.02	-1.09	-0.35	0.93	3.06	5.93	9.11	12.13	14.5	16.06	16.81	16.97	16.82	16.65	16.65	16.89	17.31	17.76	18.06	18.07
41.59	40.42	39.42	38.74	38.27	37.75	36.88	35.44	33.36	30.78	28.04	25.61	24.09	23.99	25.52	28.45	31.96	34.86	35.91	34.22	29.57	22.46	13.91	5.07	-3.24	-10.67	-17.42	-24.04	-31.14	-39.15	-48.09	-57.48	-66.33	-73.3	-77	-76.39	-71.16	-61.88	-49.9	-37.03	-25.03	-15.25	-8.29	-4.1	-2.02	-1.09	-0.35	0.93	3.06	5.93	9.11	12.13	14.5	16.06	16.81	16.97	16.82	16.65	16.65	16.89	17.31	17.76	18.06	18.07	17.7	16.94	15.83	14.41	12.73	10.88	8.94	7.09	5.5	4.31	3.56	3.16	2.92	2.58	2.01	1.18	0.22	-0.68	-1.46	-2.23	-3.32	-5.06	-7.72	-11.29	-15.49	-19.86	-23.93	-27.38	-30.11	-32.26	-34.16	-36.33	-39.42	-44.07	-50.75	-59.35	-69.03	-78.09	-84.34	-85.7	-80.91	-70	-54.35	-36.28	-18.31	-2.53	9.84	18.54	24.06	27.39	29.59	31.54	33.77	36.39	39.3	42.28	45.15	47.78	50.02	51.65	52.39	52.11	50.99	49.51
17.7	16.94	15.83	14.41	12.73	10.88	8.94	7.09	5.5	4.31	3.56	3.16	2.92	2.58	2.01	1.18	0.22	-0.68	-1.46	-2.23	-3.32	-5.06	-7.72	-11.29	-15.49	-19.86	-23.93	-27.38	-30.11	-32.26	-34.16	-36.33	-39.42	-44.07	-50.75	-59.35	-69.03	-78.09	-84.34	-85.7	-80.91	-70	-54.35	-36.28	-18.31	-2.53	9.84	18.54	24.06	27.39	29.59	31.54	33.77	36.39	39.3	42.28	45.15	47.78	50.02	51.65	52.39	52.11	50.99	49.51	48.3	47.75	47.79	47.84	47.11	45.03	41.56	37.19	32.69	28.76	25.73	23.59	22.13	21.14	20.54	20.29	20.31	20.4	20.27	19.64	18.32	16.31	13.75	10.89	8	5.28	2.83	0.59	-1.67	-4.32	-7.7	-11.99	-17.1	-22.65	-28.12	-33.02	-37.12	-40.5	-43.6	-47.01	-51.33	-56.96	-63.84	-71.35	-78.25	-82.87	-83.55	-79.11	-69.43	-55.5	-39.28	-23.01	-8.58	2.92	11.3	16.99	20.7	23.09	24.59	25.5	26.04	26.46	27.06	28.07
48.3	47.75	47.79	47.84	47.11	45.03	41.56	37.19	32.69	28.76	25.73	23.59	22.13	21.14	20.54	20.29	20.31	20.4	20.27	19.64	18.32	16.31	13.75	10.89	8	5.28	2.83	0.59	-1.67	-4.32	-7.7	-11.99	-17.1	-22.65	-28.12	-33.02	-37.12	-40.5	-43.6	-47.01	-51.33	-56.96	-63.84	-71.35	-78.25	-82.87	-83.55	-79.11	-69.43	-55.5	-39.28	-23.01	-8.58	2.92	11.3	16.99	20.7	23.09	24.59	25.5	26.04	26.46	27.06	28.07	29.6	31.57	33.73	35.72	37.25	38.26	38.88	39.38	39.99	40.68	41.2	41.2	40.53	39.33	38.06	37.22	37.1	37.59	38.2	38.31	37.42	35.36	32.33	28.76	25.1	21.67	18.56	15.64	12.69	9.6	6.35	3.08	0.01	-2.74	-5.18	-7.52	-10.05	-13	-16.48	-20.45	-24.68	-28.9	-32.82	-36.27	-39.25	-41.94	-44.67	-47.9	-52.06	-57.46	-63.96	-70.93	-77.09	-80.69	-80.02	-73.9	-62.24	-46.25	-28.13	-10.43	4.67	16.02	23.57	28.1
29.6	31.57	33.73	35.72	37.25	38.26	38.88	39.38	39.99	40.68	41.2	41.2	40.53	39.33	38.06	37.22	37.1	37.59	38.2	38.31	37.42	35.36	32.33	28.76	25.1	21.67	18.56	15.64	12.69	9.6	6.35	3.08	0.01	-2.74	-5.18	-7.52	-10.05	-13	-16.48	-20.45	-24.68	-28.9	-32.82	-36.27	-39.25	-41.94	-44.67	-47.9	-52.06	-57.46	-63.96	-70.93	-77.09	-80.69	-80.02	-73.9	-62.24	-46.25	-28.13	-10.43	4.67	16.02	23.57	28.1	30.67	32.25	33.43	34.51	35.6	36.77	38.03	39.29	40.35	40.95	40.9	40.23	39.25	38.5	38.47	39.43	41.23	43.28	44.79	44.96	43.39	40.17	35.86	31.27	27.09	23.72	21.14	19.07	17.16	15.21	13.23	11.32	9.56	7.86	6.03	3.85	1.21	-1.72	-4.62	-7.13	-9.05	-10.42	-11.51	-12.66	-14.21	-16.35	-19.14	-22.52	-26.31	-30.22	-33.93	-37.15	-39.81	-42.13	-44.62	-47.9	-52.49	-58.41	-65.14	-71.53	-76.12	-77.43	-74.4	-66.76
30.67	32.25	33.43	34.51	35.6	36.77	38.03	39.29	40.35	40.95	40.9	40.23	39.25	38.5	38.47	39.43	41.23	43.28	44.79	44.96	43.39	40.17	35.86	31.27	27.09	23.72	21.14	19.07	17.16	15.21	13.23	11.32	9.56	7.86	6.03	3.85	1.21	-1.72	-4.62	-7.13	-9.05	-10.42	-11.51	-12.66	-14.21	-16.35	-19.14	-22.52	-26.31	-30.22	-33.93	-37.15	-39.81	-42.13	-44.62	-47.9	-52.49	-58.41	-65.14	-71.53	-76.12	-77.43	-74.4	-66.76	-55.12	-40.94	-26.03	-12.14	-0.5	8.37	14.58	18.61	20.93	21.91	21.76	20.7	19.1	17.49	16.44	16.41	17.59	19.8	22.7	25.81	28.71	31.11	32.87	33.98	34.47	34.37	33.74	32.68	31.4	30.07	28.89	27.93	27.12	26.34	25.45	24.38	23.09	21.51	19.53	17.05	14.13	11.07	8.33	6.25	4.78	3.41	1.36	-2.05	-7.02	-13.13	-19.6	-25.62	-30.8	-35.22	-39.4	-43.95	-49.38	-55.96	-63.7	-72.37	-81.36	-89.64	-95.71	-97.89
-55.12	-40.94	-26.03	-12.14	-0.5	8.37	14.58	18.61	20.93	21.91	21.76	20.7	19.1	17.49	16.44	16.41	17.59	19.8	22.7	25.81	28.71	31.11	32.87	33.98	34.47	34.37	33.74	32.68	31.4	30.07	28.89	27.93	27.12	26.34	25.45	24.38	23.09	21.51	19.53	17.05	14.13	11.07	8.33	6.25	4.78	3.41	1.36	-2.05	-7.02	-13.13	-19.6	-25.62	-30.8	-35.22	-39.4	-43.95	-49.38	-55.96	-63.7	-72.37	-81.36	-89.64	-95.71	-97.89	-94.79	-85.9	-71.92	-54.75	-36.96	-21	-8.55	-0.08	4.98	7.78	9.53	11.03	12.66	14.42	16.22	17.96	19.6	21.14	22.56	23.85	25.01	26.08	27.16	28.27	29.43	30.52	31.36	31.79	31.69	31.04	29.91	28.48	26.88	25.23	23.54	21.72	19.65	17.25	14.53	11.63	8.77	6.18	3.99	2.17	0.5	-1.4	-3.87	-7.13	-11.06	-15.21	-18.96	-21.8	-23.61	-24.75	-25.84	-27.5	-30.01	-33.23	-36.73	-40.05	-42.94	-45.43	-47.79	-50.46
-94.79	-85.9	-71.92	-54.75	-36.96	-21	-8.55	-0.08	4.98	7.78	9.53	11.03	12.66	14.42	16.22	17.96	19.6	21.14	22.56	23.85	25.01	26.08	27.16	28.27	29.43	30.52	31.36	31.79	31.69	31.04	29.91	28.48	26.88	25.23	23.54	21.72	19.65	17.25	14.53	11.63	8.77	6.18	3.99	2.17	0.5	-1.4	-3.87	-7.13	-11.06	-15.21	-18.96	-21.8	-23.61	-24.75	-25.84	-27.5	-30.01	-33.23	-36.73	-40.05	-42.94	-45.43	-47.79	-50.46	-53.97	-58.81	-65.18	-72.68	-80.18	-85.89	-87.8	-84.45	-75.49	-61.92	-45.76	-29.35	-14.59	-2.54	6.62	13.3	18.04	21.29	23.31	24.34	24.7	24.8	25.14	26.06	27.7	29.89	32.27	34.47	36.23	37.53	38.53	39.49	40.6	41.9	43.22	44.24	44.63	44.16	42.8	40.7	38.17	35.55	33.1	30.94	29.06	27.32	25.59	23.74	21.72	19.51	17.12	14.59	11.94	9.21	6.47	3.74	0.98	-1.92	-5.14	-8.79	-12.83	-17.02	-21.01	-24.51
-53.97	-58.81	-65.18	-72.68	-80.18	-85.89	-87.8	-84.45	-75.49	-61.92	-45.76	-29.35	-14.59	-2.54	6.62	13.3	18.04	21.29	23.31	24.34	24.7	24.8	25.14	26.06	27.7	29.89	32.27	34.47	36.23	37.53	38.53	39.49	40.6	41.9	43.22	44.24	44.63	44.16	42.8	40.7	38.17	35.55	33.1	30.94	29.06	27.32	25.59	23.74	21.72	19.51	17.12	14.59	11.94	9.21	6.47	3.74	0.98	-1.92	-5.14	-8.79	-12.83	-17.02	-21.01	-24.51	-27.45	-30.08	-32.93	-36.61	-41.58	-48.01	-55.63	-63.67	-70.9	-75.82	-76.89	-73.04	-63.99	-50.55	-34.46	-17.97	-3.14	8.63	16.85	21.84	24.36	25.26	25.26	24.86	24.43	24.26	24.52	25.27	26.43	27.82	29.32	30.86	32.42	34.01	35.58	37.02	38.15	38.82	38.89	38.24	36.79	34.55	31.72	28.64	25.77	23.47	21.8	20.5	19.14	17.32	14.95	12.19	9.38	6.76	4.44	2.29	0.09	-2.4	-5.39	-8.94	-12.97	-17.28	-21.5	-25.35
-27.45	-30.08	-32.93	-36.61	-41.58	-48.01	-55.63	-63.67	-70.9	-75.82	-76.89	-73.04	-63.99	-50.55	-34.46	-17.97	-3.14	8.63	16.85	21.84	24.36	25.26	25.26	24.86	24.43	24.26	24.52	25.27	26.43	27.82	29.32	30.86	32.42	34.01	35.58	37.02	38.15	38.82	38.89	38.24	36.79	34.55	31.72	28.64	25.77	23.47	21.8	20.5	19.14	17.32	14.95	12.19	9.38	6.76	4.44	2.29	0.09	-2.4	-5.39	-8.94	-12.97	-17.28	-21.5	-25.35	-28.67	-31.63	-34.73	-38.69	-44.2	-51.52	-60.28	-69.23	-76.46	-79.87	-77.82	-69.73	-56.37	-39.64	-22	-5.75	7.56	17.32	23.73	27.5	29.5	30.53	31.25	32.06	33.13	34.41	35.72	36.88	37.8	38.48	39.09	39.8	40.85	42.38	44.48	47	49.59	51.69	52.68	52.11	49.9	46.41	42.34	38.52	35.58	33.79	32.98	32.61	32.03	30.64	28.14	24.51	20.04	15.23	10.61	6.61	3.43	0.96	-1.18	-3.47	-6.32	-9.89	-14.05	-18.42
-28.67	-31.63	-34.73	-38.69	-44.2	-51.52	-60.28	-69.23	-76.46	-79.87	-77.82	-69.73	-56.37	-39.64	-22	-5.75	7.56	17.32	23.73	27.5	29.5	30.53	31.25	32.06	33.13	34.41	35.72	36.88	37.8	38.48	39.09	39.8	40.85	42.38	44.48	47	49.59	51.69	52.68	52.11	49.9	46.41	42.34	38.52	35.58	33.79	32.98	32.61	32.03	30.64	28.14	24.51	20.04	15.23	10.61	6.61	3.43	0.96	-1.18	-3.47	-6.32	-9.89	-14.05	-18.42	-22.6	-26.21	-29.11	-31.4	-33.47	-35.84	-39.18	-43.92	-49.95	-56.37	-61.45	-63.05	-59.35	-49.58	-34.54	-16.45	1.76	17.33	28.53	34.92	37.16	36.59	34.62	32.58	31.61	32.65	36.36	42.85	51.53	61.08	69.87	76.49	80.33	81.78	81.99	82.21	83.18	84.72	85.88	85.46	82.71	77.65	71.08	64.12	57.61	51.82	46.44	40.95	35.03	28.76	22.53	16.72	11.34	6.09	0.49	-5.72	-12.42	-19.15	-25.45	-31.09	-36.17	-40.97	-45.65	-50.19
-22.6	-26.21	-29.11	-31.4	-33.47	-35.84	-39.18	-43.92	-49.95	-56.37	-61.45	-63.05	-59.35	-49.58	-34.54	-16.45	1.76	17.33	28.53	34.92	37.16	36.59	34.62	32.58	31.61	32.65	36.36	42.85	51.53	61.08	69.87	76.49	80.33	81.78	81.99	82.21	83.18	84.72	85.88	85.46	82.71	77.65	71.08	64.12	57.61	51.82	46.44	40.95	35.03	28.76	22.53	16.72	11.34	6.09	0.49	-5.72	-12.42	-19.15	-25.45	-31.09	-36.17	-40.97	-45.65	-50.19	-54.37	-58.06	-61.36	-64.7	-68.54	-73.13	-78.35	-83.74	-88.78	-93.1	-96.67	-99.72	-102.66	-106.01	-110.24	-115.68	-122.26	-129.2	-135	-137.6	-135.01	-126.08	-110.99	-91.37	-69.76	-48.82	-30.52	-15.73	-4.28	4.72	12.34	19.45	26.56	33.75	40.88	47.6	53.56	58.44	62.11	64.7	66.57	68.18	69.86	71.7	73.47	74.76	75.12	74.31	72.38	69.56	66.21	62.72	59.36	56.32	53.72	51.53	49.62	47.73	45.61	43.1	40.21	37.05	33.75	30.33
-54.37	-58.06	-61.36	-64.7	-68.54	-73.13	-78.35	-83.74	-88.78	-93.1	-96.67	-99.72	-102.66	-106.01	-110.24	-115.68	-122.26	-129.2	-135	-137.6	-135.01	-126.08	-110.99	-91.37	-69.76	-48.82	-30.52	-15.73	-4.28	4.72	12.34	19.45	26.56	33.75	40.88	47.6	53.56	58.44	62.11	64.7	66.57	68.18	69.86	71.7	73.47	74.76	75.12	74.31	72.38	69.56	66.21	62.72	59.36	56.32	53.72	51.53	49.62	47.73	45.61	43.1	40.21	37.05	33.75	30.33	26.63	22.48	17.77	12.62	7.38	2.56	-1.43	-4.42	-6.54	-8.19	-9.89	-12.13	-15.2	-19.11	-23.67	-28.48	-33.07	-37.06	-40.26	-42.81	-45.22	-48.32	-53.1	-60.41	-70.49	-82.74	-95.56	-106.66	-113.62	-114.64	-109.12	-97.89	-82.86	-66.47	-50.98	-38.04	-28.45	-22.29	-19.09	-18.03	-18.14	-18.51	-18.39	-17.41	-15.5	-12.84	-9.82	-6.76	-3.98	-1.63	0.31	2.03	3.81	5.92	8.5	11.46	14.49	17.17	19.14	20.21	20.41	20.01	19.33	18.69
26.63	22.48	17.77	12.62	7.38	2.56	-1.43	-4.42	-6.54	-8.19	-9.89	-12.13	-15.2	-19.11	-23.67	-28.48	-33.07	-37.06	-40.26	-42.81	-45.22	-48.32	-53.1	-60.41	-70.49	-82.74	-95.56	-106.66	-113.62	-114.64	-109.12	-97.89	-82.86	-66.47	-50.98	-38.04	-28.45	-22.29	-19.09	-18.03	-18.14	-18.51	-18.39	-17.41	-15.5	-12.84	-9.82	-6.76	-3.98	-1.63	0.31	2.03	3.81	5.92	8.5	11.46	14.49	17.17	19.14	20.21	20.41	20.01	19.33	18.69	18.29	18.14	18.09	17.91	17.43	16.62	15.62	14.67	13.94	13.44	13.05	12.58	11.91	11.04	10.08	9.12	8.16	7.04	5.47	3.15	-0.14	-4.38	-9.36	-14.68	-19.89	-24.56	-28.52	-31.88	-35.09	-38.8	-43.72	-50.25	-58.24	-66.81	-74.39	-79.09	-79.22	-73.77	-62.84	-47.55	-29.86	-11.96	4.23	17.46	27.23	33.74	37.52	39.26	39.55	38.87	37.67	36.39	35.43	35.2	35.9	37.62	40.18	43.28	46.47	49.27	51.32	52.45	52.74	52.39
18.29	18.14	18.09	17.91	17.43	16.62	15.62	14.67	13.94	13.44	13.05	12.58	11.91	11.04	10.08	9.12	8.16	7.04	5.47	3.15	-0.14	-4.38	-9.36	-14.68	-19.89	-24.56	-28.52	-31.88	-35.09	-38.8	-43.72	-50.25	-58.24	-66.81	-74.39	-79.09	-79.22	-73.77	-62.84	-47.55	-29.86	-11.96	4.23	17.46	27.23	33.74	37.52	39.26	39.55	38.87	37.67	36.39	35.43	35.2	35.9	37.62	40.18	43.28	46.47	49.27	51.32	52.45	52.74	52.39	51.65	50.63	49.25	47.36	44.88	41.94	38.85	35.99	33.57	31.61	29.93	28.34	26.78	25.23	23.7	22.09	20.24	17.98	15.32	12.44	9.59	6.94	4.46	1.92	-0.97	-4.39	-8.39	-12.79	-17.31	-21.72	-25.86	-29.69	-33.32	-36.97	-40.99	-45.84	-51.96	-59.55	-68.32	-77.24	-84.64	-88.47	-86.96	-79.23	-65.67	-47.98	-28.59	-10	5.9	18.16	26.72	32.08	34.98	36.09	35.97	35.08	33.82	32.6	31.72	31.4	31.69	32.53	33.78	35.33
51.65	50.63	49.25	47.36	44.88	41.94	38.85	35.99	33.57	31.61	29.93	28.34	26.78	25.23	23.7	22.09	20.24	17.98	15.32	12.44	9.59	6.94	4.46	1.92	-0.97	-4.39	-8.39	-12.79	-17.31	-21.72	-25.86	-29.69	-33.32	-36.97	-40.99	-45.84	-51.96	-59.55	-68.32	-77.24	-84.64	-88.47	-86.96	-79.23	-65.67	-47.98	-28.59	-10	5.9	18.16	26.72	32.08	34.98	36.09	35.97	35.08	33.82	32.6	31.72	31.4	31.69	32.53	33.78	35.33	37.09	39	40.98	42.85	44.37	45.27	45.26	44.2	42.18	39.45	36.43	33.53	31.08	29.14	27.51	25.77	23.48	20.42	16.75	12.93	9.54	7.02	5.42	4.35	3.21	1.45	-1.22	-4.74	-8.81	-13.06	-17.17	-20.9	-24.14	-26.94	-29.57	-32.52	-36.5	-42.09	-49.55	-58.47	-67.74	-75.68	-80.41	-80.32	-74.55	-63.28	-47.71	-29.84	-11.89	4.16	17.04	26.29	32.15	35.33	36.71	37.09	37.09	37.18	37.68	38.76	40.44	42.63	45.05	47.4
37.09	39	40.98	42.85	44.37	45.27	45.26	44.2	42.18	39.45	36.43	33.53	31.08	29.14	27.51	25.77	23.48	20.42	16.75	12.93	9.54	7.02	5.42	4.35	3.21	1.45	-1.22	-4.74	-8.81	-13.06	-17.17	-20.9	-24.14	-26.94	-29.57	-32.52	-36.5	-42.09	-49.55	-58.47	-67.74	-75.68	-80.41	-80.32	-74.55	-63.28	-47.71	-29.84	-11.89	4.16	17.04	26.29	32.15	35.33	36.71	37.09	37.09	37.18	37.68	38.76	40.44	42.63	45.05	47.4	49.4	50.94	52.02	52.76	53.29	53.66	53.78	53.51	52.65	51.08	48.8	45.91	42.58	39.02	35.39	31.79	28.27	24.81	21.38	17.92	14.36	10.66	6.87	3.13	-0.36	-3.41	-6	-8.37	-10.97	-14.27	-18.51	-23.59	-29.02	-34.2	-38.67	-42.36	-45.65	-49.24	-53.97	-60.45	-68.83	-78.59	-88.38	-96.24	-100.05	-98.12	-89.76	-75.61	-57.47	-37.81	-19.07	-3.07	9.22	17.73	23.01	25.92	27.36	28.12	28.76	29.63	30.87	32.53	34.58	36.88
49.4	50.94	52.02	52.76	53.29	53.66	53.78	53.51	52.65	51.08	48.8	45.91	42.58	39.02	35.39	31.79	28.27	24.81	21.38	17.92	14.36	10.66	6.87	3.13	-0.36	-3.41	-6	-8.37	-10.97	-14.27	-18.51	-23.59	-29.02	-34.2	-38.67	-42.36	-45.65	-49.24	-53.97	-60.45	-68.83	-78.59	-88.38	-96.24	-100.05	-98.12	-89.76	-75.61	-57.47	-37.81	-19.07	-3.07	9.22	17.73	23.01	25.92	27.36	28.12	28.76	29.63	30.87	32.53	34.58	36.88	39.26	41.48	43.26	44.44	45.02	45.18	45.21	45.36	45.71	46.07	46.11	45.45	43.87	41.37	38.19	34.69	31.16	27.75	24.46	21.17	17.77	14.2	10.54	6.96	3.68	0.85	-1.51	-3.58	-5.77	-8.51	-12.09	-16.53	-21.51	-26.52	-31.06	-34.9	-38.17	-41.3	-44.89	-49.49	-55.46	-62.82	-71.15	-79.51	-86.41	-90.06	-88.81	-81.66	-68.8	-51.69	-32.64	-14.26	1.35	12.99	20.53	24.64	26.37	26.82	26.81	26.88	27.24	27.9	28.77	29.73
39.26	41.48	43.26	44.44	45.02	45.18	45.21	45.36	45.71	46.07	46.11	45.45	43.87	41.37	38.19	34.69	31.16	27.75	24.46	21.17	17.77	14.2	10.54	6.96	3.68	0.85	-1.51	-3.58	-5.77	-8.51	-12.09	-16.53	-21.51	-26.52	-31.06	-34.9	-38.17	-41.3	-44.89	-49.49	-55.46	-62.82	-71.15	-79.51	-86.41	-90.06	-88.81	-81.66	-68.8	-51.69	-32.64	-14.26	1.35	12.99	20.53	24.64	26.37	26.82	26.81	26.88	27.24	27.9	28.77	29.73	30.67	31.5	32.18	32.71	33.12	33.46	33.75	34	34.21	34.36	34.42	34.34	34	33.25	31.87	29.78	27.03	23.84	20.52	17.35	14.47	11.86	9.37	6.8	3.98	0.8	-2.8	-6.76	-10.98	-15.26	-19.43	-23.38	-27.19	-31.09	-35.51	-40.9	-47.58	-55.53	-64.15	-72.27	-78.21	-80.27	-77.18	-68.61	-55.32	-39.07	-22.11	-6.55	6.08	15.22	21.13	24.6	26.57	27.77	28.62	29.29	29.8	30.24	30.65	31.07	31.48	31.83	32.07	32.26
30.67	31.5	32.18	32.71	33.12	33.46	33.75	34	34.21	34.36	34.42	34.34	34	33.25	31.87	29.78	27.03	23.84	20.52	17.35	14.47	11.86	9.37	6.8	3.98	0.8	-2.8	-6.76	-10.98	-15.26	-19.43	-23.38	-27.19	-31.09	-35.51	-40.9	-47.58	-55.53	-64.15	-72.27	-78.21	-80.27	-77.18	-68.61	-55.32	-39.07	-22.11	-6.55	6.08	15.22	21.13	24.6	26.57	27.77	28.62	29.29	29.8	30.24	30.65	31.07	31.48	31.83	32.07	32.26	32.52	32.96	33.61	34.3	34.79	34.79	34.06	32.55	30.39	27.76	24.9	21.99	19.17	16.46	13.84	11.21	8.44	5.46	2.27	-1.07	-4.46	-7.77	-10.98	-14.1	-17.21	-20.39	-23.65	-26.92	-30.14	-33.31	-36.61	-40.47	-45.39	-51.61	-58.91	-66.26	-72.06	-74.47	-72.05	-64.28	-51.82	-36.32	-19.9	-4.61	8.15	17.7	24.08	27.78	29.46	29.77	29.25	28.33	27.34	26.59	26.26	26.43	27.06	28.04	29.23	30.56	32.01	33.55	35.12	36.56
32.52	32.96	33.61	34.3	34.79	34.79	34.06	32.55	30.39	27.76	24.9	21.99	19.17	16.46	13.84	11.21	8.44	5.46	2.27	-1.07	-4.46	-7.77	-10.98	-14.1	-17.21	-20.39	-23.65	-26.92	-30.14	-33.31	-36.61	-40.47	-45.39	-51.61	-58.91	-66.26	-72.06	-74.47	-72.05	-64.28	-51.82	-36.32	-19.9	-4.61	8.15	17.7	24.08	27.78	29.46	29.77	29.25	28.33	27.34	26.59	26.26	26.43	27.06	28.04	29.23	30.56	32.01	33.55	35.12	36.56	37.63	38.1	37.77	36.56	34.48	31.69	28.45	25.08	21.94	19.3	17.24	15.64	14.26	12.79	11.08	9.06	6.84	4.62	2.54	0.66	-1.12	-3.03	-5.37	-8.4	-12.19	-16.59	-21.22	-25.62	-29.46	-32.67	-35.51	-38.44	-42	-46.61	-52.47	-59.4	-66.77	-73.41	-77.75	-78.15	-73.35	-63.05	-48.17	-30.69	-13.1	2.39	14.42	22.65	27.58	30.08	31	30.97	30.38	29.5	28.61	27.98	27.83	28.26	29.22	30.53	31.98	33.41	34.75	36.01
37.63	38.1	37.77	36.56	34.48	31.69	28.45	25.08	21.94	19.3	17.24	15.64	14.26	12.79	11.08	9.06	6.84	4.62	2.54	0.66	-1.12	-3.03	-5.37	-8.4	-12.19	-16.59	-21.22	-25.62	-29.46	-32.67	-35.51	-38.44	-42	-46.61	-52.47	-59.4	-66.77	-73.41	-77.75	-78.15	-73.35	-63.05	-48.17	-30.69	-13.1	2.39	14.42	22.65	27.58	30.08	31	30.97	30.38	29.5	28.61	27.98	27.83	28.26	29.22	30.53	31.98	33.41	34.75	36.01	37.19	38.23	38.97	39.16	38.6	37.21	35.17	32.79	30.44	28.33	26.49	24.71	22.77	20.55	18.12	15.73	13.63	11.89	10.3	8.5	6.14	3.11	-0.36	-3.84	-6.95	-9.45	-11.43	-13.21	-15.16	-17.62	-20.75	-24.56	-28.92	-33.59	-38.3	-42.88	-47.32	-51.84	-56.9	-63.05	-70.6	-79.35	-88.35	-95.93	-100.08	-99	-91.75	-78.68	-61.39	-42.33	-24.07	-8.6	3.05	10.78	15.15	17.03	17.26	16.56	15.57	14.81	14.65	15.34	16.88	19.12
37.19	38.23	38.97	39.16	38.6	37.21	35.17	32.79	30.44	28.33	26.49	24.71	22.77	20.55	18.12	15.73	13.63	11.89	10.3	8.5	6.14	3.11	-0.36	-3.84	-6.95	-9.45	-11.43	-13.21	-15.16	-17.62	-20.75	-24.56	-28.92	-33.59	-38.3	-42.88	-47.32	-51.84	-56.9	-63.05	-70.6	-79.35	-88.35	-95.93	-100.08	-99	-91.75	-78.68	-61.39	-42.33	-24.07	-8.6	3.05	10.78	15.15	17.03	17.26	16.56	15.57	14.81	14.65	15.34	16.88	19.12	21.78	24.57	27.29	29.78	32.04	34.08	35.92	37.53	38.82	39.64	39.86	39.39	38.29	36.76	35.11	33.7	32.79	32.48	32.59	32.69	32.15	30.41	27.14	22.4	16.68	10.73	5.3	0.92	-2.3	-4.66	-6.72	-9.1	-12.21	-16.14	-20.63	-25.3	-29.76	-33.94	-38	-42.34	-47.49	-53.88	-61.62	-70.31	-78.84	-85.5	-88.33	-85.7	-76.96	-62.72	-44.8	-25.71	-7.92	6.79	17.56	24.4	27.91	28.98	28.6	27.69	27.08	27.28	28.44	30.39
21.78	24.57	27.29	29.78	32.04	34.08	35.92	37.53	38.82	39.64	39.86	39.39	38.29	36.76	35.11	33.7	32.79	32.48	32.59	32.69	32.15	30.41	27.14	22.4	16.68	10.73	5.3	0.92	-2.3	-4.66	-6.72	-9.1	-12.21	-16.14	-20.63	-25.3	-29.76	-33.94	-38	-42.34	-47.49	-53.88	-61.62	-70.31	-78.84	-85.5	-88.33	-85.7	-76.96	-62.72	-44.8	-25.71	-7.92	6.79	17.56	24.4	27.91	28.98	28.6	27.69	27.08	27.28	28.44	30.39	32.72	35.04	37.08	38.8	40.31	41.71	43	44.12	44.93	45.4	45.59	45.56	45.32	44.69	43.47	41.52	38.95	36.06	33.21	30.65	28.36	26.1	23.66	20.99	18.25	15.69	13.43	11.35	9.16	6.56	3.51	0.17	-3.22	-6.52	-9.8	-13.32	-17.31	-21.87	-26.83	-31.86	-36.57	-40.68	-44.06	-46.84	-49.35	-52.16	-55.96	-61.36	-68.58	-77.14	-85.72	-92.28	-94.64	-91.16	-81.32	-66.07	-47.48	-28.2	-10.64	3.61	14.02	20.92	25.13	27.53
32.72	35.04	37.08	38.8	40.31	41.71	43	44.12	44.93	45.4	45.59	45.56	45.32	44.69	43.47	41.52	38.95	36.06	33.21	30.65	28.36	26.1	23.66	20.99	18.25	15.69	13.43	11.35	9.16	6.56	3.51	0.17	-3.22	-6.52	-9.8	-13.32	-17.31	-21.87	-26.83	-31.86	-36.57	-40.68	-44.06	-46.84	-49.35	-52.16	-55.96	-61.36	-68.58	-77.14	-85.72	-92.28	-94.64	-91.16	-81.32	-66.07	-47.48	-28.2	-10.64	3.61	14.02	20.92	25.13	27.53	28.77	29.32	29.49	29.56	29.83	30.56	31.84	33.58	35.54	37.42	39	40.2	41.1	41.79	42.35	42.72	42.75	42.25	41.1	39.29	36.94	34.31	31.7	29.37	27.5	26.04	24.8	23.42	21.62	19.26	16.45	13.48	10.7	8.34	6.4	4.67	2.88	0.87	-1.37	-3.72	-6.06	-8.36	-10.67	-13.15	-15.85	-18.77	-21.84	-24.89	-27.81	-30.52	-33.01	-35.38	-37.85	-40.74	-44.4	-49.17	-55.21	-62.42	-70.23	-77.56	-82.82	-84.27	-80.46	-70.9
28.77	29.32	29.49	29.56	29.83	30.56	31.84	33.58	35.54	37.42	39	40.2	41.1	41.79	42.35	42.72	42.75	42.25	41.1	39.29	36.94	34.31	31.7	29.37	27.5	26.04	24.8	23.42	21.62	19.26	16.45	13.48	10.7	8.34	6.4	4.67	2.88	0.87	-1.37	-3.72	-6.06	-8.36	-10.67	-13.15	-15.85	-18.77	-21.84	-24.89	-27.81	-30.52	-33.01	-35.38	-37.85	-40.74	-44.4	-49.17	-55.21	-62.42	-70.23	-77.56	-82.82	-84.27	-80.46	-70.9	-56.31	-38.53	-20.02	-3.07	10.74	20.84	27.46	31.22	32.76	32.62	31.27	29.22	27.1	25.48	24.78	25.08	26.16	27.59	29	30.19	31.2	32.17	33.2	34.24	35.05	35.31	34.79	33.5	31.6	29.4	27.11	24.84	22.62	20.46	18.35	16.34	14.43	12.63	10.88	9.12	7.32	5.46	3.52	1.4	-0.9	-3.34	-5.84	-8.24	-10.46	-12.51	-14.52	-16.7	-19.23	-22.19	-25.62	-29.42	-33.43	-37.48	-41.42	-45.2	-48.97	-53.08	-57.97	-63.97
-56.31	-38.53	-20.02	-3.07	10.74	20.84	27.46	31.22	32.76	32.62	31.27	29.22	27.1	25.48	24.78	25.08	26.16	27.59	29	30.19	31.2	32.17	33.2	34.24	35.05	35.31	34.79	33.5	31.6	29.4	27.11	24.84	22.62	20.46	18.35	16.34	14.43	12.63	10.88	9.12	7.32	5.46	3.52	1.4	-0.9	-3.34	-5.84	-8.24	-10.46	-12.51	-14.52	-16.7	-19.23	-22.19	-25.62	-29.42	-33.43	-37.48	-41.42	-45.2	-48.97	-53.08	-57.97	-63.97	-70.89	-77.84	-83.25	-85.27	-82.31	-73.69	-59.95	-42.74	-24.28	-6.73	8.3	19.98	28.14	33.06	35.25	35.32	33.91	31.62	29.05	26.68	24.9	23.97	23.98	24.86	26.44	28.41	30.51	32.6	34.64	36.69	38.69	40.33	41.15	40.67	38.64	35.22	31	26.73	23.04	20.2	18.04	16.07	13.75	10.7	6.94	2.77	-1.27	-4.76	-7.53	-9.81	-12.1	-14.97	-18.83	-23.73	-29.37	-35.2	-40.63	-45.24	-48.95	-52.03	-55.08	-58.86	-64	-70.62
-70.89	-77.84	-83.25	-85.27	-82.31	-73.69	-59.95	-42.74	-24.28	-6.73	8.3	19.98	28.14	33.06	35.25	35.32	33.91	31.62	29.05	26.68	24.9	23.97	23.98	24.86	26.44	28.41	30.51	32.6	34.64	36.69	38.69	40.33	41.15	40.67	38.64	35.22	31	26.73	23.04	20.2	18.04	16.07	13.75	10.7	6.94	2.77	-1.27	-4.76	-7.53	-9.81	-12.1	-14.97	-18.83	-23.73	-29.37	-35.2	-40.63	-45.24	-48.95	-52.03	-55.08	-58.86	-64	-70.62	-78.13	-85.09	-89.6	-89.77	-84.47	-73.64	-58.39	-40.6	-22.33	-5.31	9.35	21.12	29.92	35.91	39.44	40.97	41.14	40.7	40.39	40.84	42.48	45.51	49.87	55.25	61.04	66.52	71.02	74.07	75.56	75.71	74.88	73.42	71.57	69.45	67.06	64.33	61.08	57	51.76	45.1	37.05	28.05	18.86	10.41	3.46	-1.57	-4.83	-6.92	-8.77	-11.38	-15.51	-21.49	-29.24	-38.27	-47.99	-57.92	-67.83	-77.83	-88.18	-99.26	-111.3	-124.08	-136.73	-147.73
-78.13	-85.09	-89.6	-89.77	-84.47	-73.64	-58.39	-40.6	-22.33	-5.31	9.35	21.12	29.92	35.91	39.44	40.97	41.14	40.7	40.39	40.84	42.48	45.51	49.87	55.25	61.04	66.52	71.02	74.07	75.56	75.71	74.88	73.42	71.57	69.45	67.06	64.33	61.08	57	51.76	45.1	37.05	28.05	18.86	10.41	3.46	-1.57	-4.83	-6.92	-8.77	-11.38	-15.51	-21.49	-29.24	-38.27	-47.99	-57.92	-67.83	-77.83	-88.18	-99.26	-111.3	-124.08	-136.73	-147.73	-155.15	-157.09	-152.34	-140.77	-123.5	-102.54	-80.33	-59.09	-40.44	-25.26	-13.73	-5.54	-0.06	3.45	5.75	7.46	9.02	10.7	12.58	14.65	16.83	19.07	21.41	23.99	27.04	30.82	35.47	40.88	46.7	52.39	57.31	60.9	62.82	63.02	61.81	59.71	57.3	54.99	52.88	50.74	48.17	44.85	40.76	36.22	31.73	27.69	24.12	20.64	16.68	11.74	5.65	-1.27	-8.47	-15.33	-21.49	-26.92	-31.95	-37.16	-43.24	-50.72	-59.82	-70.09	-80.33	-88.7
-155.15	-157.09	-152.34	-140.77	-123.5	-102.54	-80.33	-59.09	-40.44	-25.26	-13.73	-5.54	-0.06	3.45	5.75	7.46	9.02	10.7	12.58	14.65	16.83	19.07	21.41	23.99	27.04	30.82	35.47	40.88	46.7	52.39	57.31	60.9	62.82	63.02	61.81	59.71	57.3	54.99	52.88	50.74	48.17	44.85	40.76	36.22	31.73	27.69	24.12	20.64	16.68	11.74	5.65	-1.27	-8.47	-15.33	-21.49	-26.92	-31.95	-37.16	-43.24	-50.72	-59.82	-70.09	-80.33	-88.7	-93.06	-91.67	-83.68	-69.52	-50.79	-29.82	-9.08	9.43	24.43	35.51	42.94	47.47	50.06	51.63	52.93	54.37	56.13	58.24	60.7	63.47	66.5	69.67	72.74	75.38	77.24	78.06	77.7	76.14	73.43	69.68	65.05	59.73	54.06	48.41	43.24	38.89	35.56	33.06	30.85	28.25	24.66	19.93	14.43	8.93	4.21	0.76	-1.45	-2.89	-4.26	-6.2	-8.99	-12.6	-16.7	-20.93	-25	-28.78	-32.26	-35.56	-38.84	-42.34	-46.39	-51.34	-57.36	-64.19
-93.06	-91.67	-83.68	-69.52	-50.79	-29.82	-9.08	9.43	24.43	35.51	42.94	47.47	50.06	51.63	52.93	54.37	56.13	58.24	60.7	63.47	66.5	69.67	72.74	75.38	77.24	78.06	77.7	76.14	73.43	69.68	65.05	59.73	54.06	48.41	43.24	38.89	35.56	33.06	30.85	28.25	24.66	19.93	14.43	8.93	4.21	0.76	-1.45	-2.89	-4.26	-6.2	-8.99	-12.6	-16.7	-20.93	-25	-28.78	-32.26	-35.56	-38.84	-42.34	-46.39	-51.34	-57.36	-64.19	-70.86	-75.76	-76.97	-72.96	-63.19	-48.37	-30.3	-11.27	6.48	21.27	32.19	39.05	42.21	42.46	40.79	38.2	35.5	33.16	31.27	29.73	28.4	27.24	26.25	25.44	24.71	23.83	22.62	21.08	19.49	18.25	17.68	17.78	18.23	18.55	18.33	17.49	16.33	15.34	14.92	15.2	15.89	16.5	16.54	15.7	14.05	11.89	9.66	7.7	6.15	4.93	3.79	2.4	0.5	-1.98	-4.96	-8.2	-11.44	-14.53	-17.47	-20.43	-23.63	-27.28	-31.55	-36.54
-70.86	-75.76	-76.97	-72.96	-63.19	-48.37	-30.3	-11.27	6.48	21.27	32.19	39.05	42.21	42.46	40.79	38.2	35.5	33.16	31.27	29.73	28.4	27.24	26.25	25.44	24.71	23.83	22.62	21.08	19.49	18.25	17.68	17.78	18.23	18.55	18.33	17.49	16.33	15.34	14.92	15.2	15.89	16.5	16.54	15.7	14.05	11.89	9.66	7.7	6.15	4.93	3.79	2.4	0.5	-1.98	-4.96	-8.2	-11.44	-14.53	-17.47	-20.43	-23.63	-27.28	-31.55	-36.54	-42.35	-48.85	-55.56	-61.45	-64.97	-64.49	-58.91	-48.19	-33.5	-16.91	-0.67	13.42	24.45	32.35	37.52	40.43	41.45	40.82	38.82	35.94	32.86	30.32	28.92	29	30.54	33.22	36.54	39.91	42.81	44.87	45.92	45.98	45.16	43.61	41.43	38.67	35.35	31.49	27.15	22.36	17.2	11.64	5.65	-0.74	-7.35	-13.79	-19.52	-24.04	-27.06	-28.63	-29.15	-29.15	-29.23	-29.81	-31.08	-33.02	-35.42	-38.06	-40.7	-43.18	-45.46	-47.62	-49.88	-52.6
-42.35	-48.85	-55.56	-61.45	-64.97	-64.49	-58.91	-48.19	-33.5	-16.91	-0.67	13.42	24.45	32.35	37.52	40.43	41.45	40.82	38.82	35.94	32.86	30.32	28.92	29	30.54	33.22	36.54	39.91	42.81	44.87	45.92	45.98	45.16	43.61	41.43	38.67	35.35	31.49	27.15	22.36	17.2	11.64	5.65	-0.74	-7.35	-13.79	-19.52	-24.04	-27.06	-28.63	-29.15	-29.15	-29.23	-29.81	-31.08	-33.02	-35.42	-38.06	-40.7	-43.18	-45.46	-47.62	-49.88	-52.6	-56.1	-60.59	-65.91	-71.4	-75.88	-77.86	-75.98	-69.45	-58.44	-44.08	-28.24	-12.91	0.33	10.56	17.64	21.9	23.82	23.82	22.25	19.53	16.26	13.29	11.43	11.31	13.06	16.32	20.45	24.75	28.77	32.24	35.05	37.01	37.88	37.43	35.56	32.44	28.52	24.38	20.55	17.38	14.97	13.16	11.65	10.13	8.39	6.39	4.23	2.04	-0.11	-2.2	-4.21	-6.1	-7.78	-9.21	-10.49	-11.8	-13.36	-15.18	-17.06	-18.68	-19.87	-20.81	-22.03	-24.25
-56.1	-60.59	-65.91	-71.4	-75.88	-77.86	-75.98	-69.45	-58.44	-44.08	-28.24	-12.91	0.33	10.56	17.64	21.9	23.82	23.82	22.25	19.53	16.26	13.29	11.43	11.31	13.06	16.32	20.45	24.75	28.77	32.24	35.05	37.01	37.88	37.43	35.56	32.44	28.52	24.38	20.55	17.38	14.97	13.16	11.65	10.13	8.39	6.39	4.23	2.04	-0.11	-2.2	-4.21	-6.1	-7.78	-9.21	-10.49	-11.8	-13.36	-15.18	-17.06	-18.68	-19.87	-20.81	-22.03	-24.25	-28	-33.29	-39.51	-45.43	-49.47	-50.06	-46.1	-37.35	-24.65	-9.81	4.92	17.56	26.92	32.81	35.7	36.28	35.02	32.16	27.87	22.67	17.39	12.99	10.16	9.07	9.41	10.61	12.24	14.12	16.21	18.46	20.61	22.17	22.65	21.74	19.49	16.32	12.86	9.73	7.28	5.58	4.4	3.4	2.25	0.8	-0.92	-2.76	-4.59	-6.38	-8.32	-10.67	-13.79	-17.79	-22.49	-27.4	-31.84	-35.27	-37.54	-38.96	-40.27	-42.38	-45.99	-51.34	-58	-64.88
-28	-33.29	-39.51	-45.43	-49.47	-50.06	-46.1	-37.35	-24.65	-9.81	4.92	17.56	26.92	32.81	35.7	36.28	35.02	32.16	27.87	22.67	17.39	12.99	10.16	9.07	9.41	10.61	12.24	14.12	16.21	18.46	20.61	22.17	22.65	21.74	19.49	16.32	12.86	9.73	7.28	5.58	4.4	3.4	2.25	0.8	-0.92	-2.76	-4.59	-6.38	-8.32	-10.67	-13.79	-17.79	-22.49	-27.4	-31.84	-35.27	-37.54	-38.96	-40.27	-42.38	-45.99	-51.34	-58	-64.88	-70.4	-72.89	-71	-64.13	-52.67	-37.94	-21.83	-6.33	6.94	16.97	23.39	26.42	26.66	24.98	22.36	19.71	17.68	16.56	16.34	16.84	17.83	19.16	20.69	22.24	23.55	24.33	24.37	23.64	22.36	20.79	19.14	17.37	15.3	12.69	9.44	5.7	1.8	-1.85	-4.94	-7.27	-8.77	-9.48	-9.54	-9.21	-8.88	-9.01	-9.95	-11.82	-14.48	-17.65	-21.15	-24.95	-29.2	-34.02	-39.4	-45.17	-51.1	-56.96	-62.39	-66.74	-68.96	-67.77	-62.1	-51.71
-70.4	-72.89	-71	-64.13	-52.67	-37.94	-21.83	-6.33	6.94	16.97	23.39	26.42	26.66	24.98	22.36	19.71	17.68	16.56	16.34	16.84	17.83	19.16	20.69	22.24	23.55	24.33	24.37	23.64	22.36	20.79	19.14	17.37	15.3	12.69	9.44	5.7	1.8	-1.85	-4.94	-7.27	-8.77	-9.48	-9.54	-9.21	-8.88	-9.01	-9.95	-11.82	-14.48	-17.65	-21.15	-24.95	-29.2	-34.02	-39.4	-45.17	-51.1	-56.96	-62.39	-66.74	-68.96	-67.77	-62.1	-51.71	-37.38	-20.96	-4.72	9.3	19.82	26.57	30.09	31.38	31.48	31.2	30.98	31.04	31.38	32.02	33	34.41	36.32	38.67	41.25	43.8	46.03	47.84	49.23	50.33	51.25	51.97	52.38	52.3	51.64	50.38	48.55	46.15	43.04	39.07	34.09	28.12	21.44	14.42	7.42	0.64	-5.93	-12.42	-18.89	-25.22	-31.08	-36.07	-39.87	-42.38	-43.84	-44.72	-45.7	-47.5	-50.71	-55.53	-61.55	-67.68	-72.3	-73.65	-70.41	-62.16	-49.61	-34.34	-18.34	-3.5
-37.38	-20.96	-4.72	9.3	19.82	26.57	30.09	31.38	31.48	31.2	30.98	31.04	31.38	32.02	33	34.41	36.32	38.67	41.25	43.8	46.03	47.84	49.23	50.33	51.25	51.97	52.38	52.3	51.64	50.38	48.55	46.15	43.04	39.07	34.09	28.12	21.44	14.42	7.42	0.64	-5.93	-12.42	-18.89	-25.22	-31.08	-36.07	-39.87	-42.38	-43.84	-44.72	-45.7	-47.5	-50.71	-55.53	-61.55	-67.68	-72.3	-73.65	-70.41	-62.16	-49.61	-34.34	-18.34	-3.5	8.86	18.05	23.95	26.84	27.25	25.84	23.34	20.5	17.93	16.12	15.33	15.61	16.84	18.71	20.81	22.61	23.66	23.66	22.52	20.39	17.48	14.03	10.24	6.28	2.31	-1.44	-4.71	-7.36	-9.38	-10.91	-12.24	-13.69	-15.45	-17.64	-20.15	-22.77	-25.25	-27.34	-29.02	-30.5	-32.26	-34.96	-39.22	-45.33	-52.88	-60.73	-67.08	-69.96	-67.81	-60.08	-47.49	-31.84	-15.48	-0.65	11.23	19.69	25.16	28.55	30.77	32.43	33.76	34.73	35.28	35.47
8.86	18.05	23.95	26.84	27.25	25.84	23.34	20.5	17.93	16.12	15.33	15.61	16.84	18.71	20.81	22.61	23.66	23.66	22.52	20.39	17.48	14.03	10.24	6.28	2.31	-1.44	-4.71	-7.36	-9.38	-10.91	-12.24	-13.69	-15.45	-17.64	-20.15	-22.77	-25.25	-27.34	-29.02	-30.5	-32.26	-34.96	-39.22	-45.33	-52.88	-60.73	-67.08	-69.96	-67.81	-60.08	-47.49	-31.84	-15.48	-0.65	11.23	19.69	25.16	28.55	30.77	32.43	33.76	34.73	35.28	35.47	35.54	35.76	36.31	37.16	38.09	38.87	39.39	39.66	39.89	40.23	40.71	41.16	41.3	40.83	39.51	37.3	34.26	30.56	26.46	22.27	18.28	14.72	11.65	8.92	6.22	3.21	-0.36	-4.54	-9.16	-13.9	-18.46	-22.66	-26.5	-30.26	-34.42	-39.56	-46.18	-54.4	-63.79	-73.16	-80.83	-84.95	-84.18	-78.04	-67.16	-53.05	-37.66	-22.81	-9.82	0.72	8.81	14.87	19.46	23.09	26.19	29.07	31.92	34.82	37.69	40.37	42.67	44.48	45.86	46.98
35.54	35.76	36.31	37.16	38.09	38.87	39.39	39.66	39.89	40.23	40.71	41.16	41.3	40.83	39.51	37.3	34.26	30.56	26.46	22.27	18.28	14.72	11.65	8.92	6.22	3.21	-0.36	-4.54	-9.16	-13.9	-18.46	-22.66	-26.5	-30.26	-34.42	-39.56	-46.18	-54.4	-63.79	-73.16	-80.83	-84.95	-84.18	-78.04	-67.16	-53.05	-37.66	-22.81	-9.82	0.72	8.81	14.87	19.46	23.09	26.19	29.07	31.92	34.82	37.69	40.37	42.67	44.48	45.86	46.98	48.01	48.97	49.71	49.99	49.59	48.48	46.74	44.55	42.07	39.45	36.73	33.95	31.11	28.1	24.78	20.96	16.61	11.96	7.4	3.33	-0.07	-2.94	-5.62	-8.41	-11.33	-14.12	-16.41	-18	-18.96	-19.65	-20.46	-21.75	-23.75	-26.67	-30.69	-35.82	-41.57	-46.75	-49.67	-48.62	-42.65	-32.09	-18.6	-4.57	7.73	16.91	22.7	25.84	27.52	28.96	31.1	34.52	39.47	45.96	53.65	61.88	69.7	76.15	80.46	82.39	82.22	80.66	78.57	76.61
48.01	48.97	49.71	49.99	49.59	48.48	46.74	44.55	42.07	39.45	36.73	33.95	31.11	28.1	24.78	20.96	16.61	11.96	7.4	3.33	-0.07	-2.94	-5.62	-8.41	-11.33	-14.12	-16.41	-18	-18.96	-19.65	-20.46	-21.75	-23.75	-26.67	-30.69	-35.82	-41.57	-46.75	-49.67	-48.62	-42.65	-32.09	-18.6	-4.57	7.73	16.91	22.7	25.84	27.52	28.96	31.1	34.52	39.47	45.96	53.65	61.88	69.7	76.15	80.46	82.39	82.22	80.66	78.57	76.61	75.07	73.87	72.66	71.05	68.74	65.5	61.18	55.62	48.66	40.21	30.24	18.93	6.64	-6.1	-18.64	-30.25	-40.29	-48.28	-54.02	-57.59	-59.41	-59.99	-59.85	-59.32	-58.49	-57.34	-55.93	-54.61	-53.96	-54.71	-57.39	-62.07	-68.23	-74.79	-80.32	-83.31	-82.5	-77.16	-67.24	-53.53	-37.43	-20.71	-5.05	8.35	18.99	26.99	32.8	36.85	39.44	40.67	40.71	39.91	38.95	38.7	39.9	42.97	47.8	53.89	60.47	66.85	72.66	77.77	82.35	86.59
75.07	73.87	72.66	71.05	68.74	65.5	61.18	55.62	48.66	40.21	30.24	18.93	6.64	-6.1	-18.64	-30.25	-40.29	-48.28	-54.02	-57.59	-59.41	-59.99	-59.85	-59.32	-58.49	-57.34	-55.93	-54.61	-53.96	-54.71	-57.39	-62.07	-68.23	-74.79	-80.32	-83.31	-82.5	-77.16	-67.24	-53.53	-37.43	-20.71	-5.05	8.35	18.99	26.99	32.8	36.85	39.44	40.67	40.71	39.91	38.95	38.7	39.9	42.97	47.8	53.89	60.47	66.85	72.66	77.77	82.35	86.59	90.58	94.23	97.35	99.8	101.52	102.49	102.63	101.75	99.71	96.53	92.46	87.92	83.21	78.3	72.84	66.25	58.13	48.47	37.78	26.75	16.04	5.97	-3.55	-12.93	-22.72	-33.51	-45.67	-59.24	-73.7	-87.98	-100.64	-110.07	-115	-114.8	-109.7	-100.74	-89.57	-78.04	-67.94	-60.68	-57.07	-57.26	-60.87	-67.06	-74.75	-82.83	-90.33	-96.52	-100.97	-103.43	-103.83	-102.22	-98.69	-93.5	-86.98	-79.57	-71.67	-63.59	-55.51	-47.56	-39.93	-32.91	-26.84	-22
90.58	94.23	97.35	99.8	101.52	102.49	102.63	101.75	99.71	96.53	92.46	87.92	83.21	78.3	72.84	66.25	58.13	48.47	37.78	26.75	16.04	5.97	-3.55	-12.93	-22.72	-33.51	-45.67	-59.24	-73.7	-87.98	-100.64	-110.07	-115	-114.8	-109.7	-100.74	-89.57	-78.04	-67.94	-60.68	-57.07	-57.26	-60.87	-67.06	-74.75	-82.83	-90.33	-96.52	-100.97	-103.43	-103.83	-102.22	-98.69	-93.5	-86.98	-79.57	-71.67	-63.59	-55.51	-47.56	-39.93	-32.91	-26.84	-22	-18.45	-16.08	-14.58	-13.57	-12.77	-11.94	-10.94	-9.77	-8.6	-7.64	-7.17	-7.33	-8.09	-9.2	-10.3	-11.1	-11.5	-11.7	-12.16	-13.52	-16.34	-20.87	-26.74	-32.89	-37.8	-39.87	-38	-31.84	-21.92	-9.34	4.56	18.44	31.15	41.72	49.36	53.51	53.97	50.93	45	37.03	27.97	18.73	10.1	2.82	-2.48	-5.36	-5.73	-3.91	-0.6	3.29	7.01	10.15	12.69	14.76	16.39	17.3	17.02	15.23	12.06	8.11	4.22	1	-1.46	-3.57
-18.45	-16.08	-14.58	-13.57	-12.77	-11.94	-10.94	-9.77	-8.6	-7.64	-7.17	-7.33	-8.09	-9.2	-10.3	-11.1	-11.5	-11.7	-12.16	-13.52	-16.34	-20.87	-26.74	-32.89	-37.8	-39.87	-38	-31.84	-21.92	-9.34	4.56	18.44	31.15	41.72	49.36	53.51	53.97	50.93	45	37.03	27.97	18.73	10.1	2.82	-2.48	-5.36	-5.73	-3.91	-0.6	3.29	7.01	10.15	12.69	14.76	16.39	17.3	17.02	15.23	12.06	8.11	4.22	1	-1.46	-3.57	-6	-9.17	-12.98	-16.88	-20.15	-22.31	-23.33	-23.62	-23.82	-24.55	-26.29	-29.32	-33.73	-39.2	-44.96	-49.78	-52.12	-50.64	-44.73	-34.81	-22.29	-9.07	2.99	12.67	19.55	23.9	26.34	27.51	27.92	27.83	27.38	26.66	25.71	24.58	23.22	21.55	19.41	16.78	13.66	10.14	6.41	2.69	-0.71	-3.39	-4.89	-4.82	-3.01	0.39	4.79	9.43	13.64	17.01	19.6	21.75	23.74	25.51	26.51	25.96	23.23	18.31	11.9	5.26	-0.3	-3.95
-6	-9.17	-12.98	-16.88	-20.15	-22.31	-23.33	-23.62	-23.82	-24.55	-26.29	-29.32	-33.73	-39.2	-44.96	-49.78	-52.12	-50.64	-44.73	-34.81	-22.29	-9.07	2.99	12.67	19.55	23.9	26.34	27.51	27.92	27.83	27.38	26.66	25.71	24.58	23.22	21.55	19.41	16.78	13.66	10.14	6.41	2.69	-0.71	-3.39	-4.89	-4.82	-3.01	0.39	4.79	9.43	13.64	17.01	19.6	21.75	23.74	25.51	26.51	25.96	23.23	18.31	11.9	5.26	-0.3	-3.95	-5.65	-6.14	-6.74	-9.08	-14.74	-24.82	-39.56	-57.94	-77.62	-95.36	-107.82	-112.5	-108.5	-96.62	-79.01	-58.34	-37.13	-17.22	0.25	14.66	25.8	33.68	38.61	41.2	42.39	43.22	44.57	46.91	50.21	54.07	57.96	61.54	64.77	67.78	70.77	73.78	76.65	79.08	80.77	81.49	81.15	79.77	77.39	74.06	69.84	64.75	58.82	52.12	44.82	37.25	29.93	23.41	18.09	13.99	10.69	7.38	3.24	-2.31	-9.29	-17.26	-25.48	-33.28	-40.34	-46.74
-5.65	-6.14	-6.74	-9.08	-14.74	-24.82	-39.56	-57.94	-77.62	-95.36	-107.82	-112.5	-108.5	-96.62	-79.01	-58.34	-37.13	-17.22	0.25	14.66	25.8	33.68	38.61	41.2	42.39	43.22	44.57	46.91	50.21	54.07	57.96	61.54	64.77	67.78	70.77	73.78	76.65	79.08	80.77	81.49	81.15	79.77	77.39	74.06	69.84	64.75	58.82	52.12	44.82	37.25	29.93	23.41	18.09	13.99	10.69	7.38	3.24	-2.31	-9.29	-17.26	-25.48	-33.28	-40.34	-46.74	-52.92	-59.49	-67.04	-76.05	-86.61	-98.27	-109.92	-119.89	-126.31	-127.66	-123.38	-114.06	-101.21	-86.76	-72.44	-59.34	-47.77	-37.42	-27.65	-17.8	-7.48	3.29	14.05	24.13	32.88	40.03	45.79	50.75	55.62	60.87	66.62	72.66	78.59	84.04	88.55	91.63	92.59	90.84	85.99	78.29	68.6	58.26	48.72	41.04	35.62	32.16	29.87	27.9	25.59	22.73	19.46	16.18	13.24	10.82	8.77	6.66	3.94	0.2	-4.67	-10.37	-16.37	-22.13	-27.39	-32.3
-52.92	-59.49	-67.04	-76.05	-86.61	-98.27	-109.92	-119.89	-126.31	-127.66	-123.38	-114.06	-101.21	-86.76	-72.44	-59.34	-47.77	-37.42	-27.65	-17.8	-7.48	3.29	14.05	24.13	32.88	40.03	45.79	50.75	55.62	60.87	66.62	72.66	78.59	84.04	88.55	91.63	92.59	90.84	85.99	78.29	68.6	58.26	48.72	41.04	35.62	32.16	29.87	27.9	25.59	22.73	19.46	16.18	13.24	10.82	8.77	6.66	3.94	0.2	-4.67	-10.37	-16.37	-22.13	-27.39	-32.3	-37.34	-43.08	-49.96	-58.01	-66.69	-74.86	-80.94	-83.21	-80.28	-71.6	-57.76	-40.44	-21.96	-4.61	9.94	20.92	28.41	32.97	35.32	36.1	35.82	34.96	33.99	33.32	33.16	33.49	34.03	34.44	34.53	34.4	34.39	34.83	35.76	36.81	37.29	36.45	33.82	29.45	23.85	17.8	12.1	7.26	3.5	0.73	-1.28	-2.83	-4.14	-5.36	-6.51	-7.59	-8.53	-9.36	-10.15	-11.01	-12.06	-13.41	-15.1	-17.1	-19.32	-21.62	-23.95	-26.31	-28.82	-31.76
-37.34	-43.08	-49.96	-58.01	-66.69	-74.86	-80.94	-83.21	-80.28	-71.6	-57.76	-40.44	-21.96	-4.61	9.94	20.92	28.41	32.97	35.32	36.1	35.82	34.96	33.99	33.32	33.16	33.49	34.03	34.44	34.53	34.4	34.39	34.83	35.76	36.81	37.29	36.45	33.82	29.45	23.85	17.8	12.1	7.26	3.5	0.73	-1.28	-2.83	-4.14	-5.36	-6.51	-7.59	-8.53	-9.36	-10.15	-11.01	-12.06	-13.41	-15.1	-17.1	-19.32	-21.62	-23.95	-26.31	-28.82	-31.76	-35.43	-40.08	-45.64	-51.46	-56.21	-57.94	-54.62	-44.85	-28.47	-6.89	17.27	40.96	61.63	77.82	89.3	96.68	100.93	102.97	103.6	103.58	103.73	104.82	107.34	111.31	116.19	121.16	125.39	128.37	130.08	130.89	131.43	132.27	133.83	136.22	139.33	142.82	146.29	149.35	151.66	153.01	153.22	152.14	149.59	145.29	138.91	130.01	118.09	102.71	83.7	61.39	36.74	11.18	-13.67	-36.43	-56.34	-73.27	-87.56	-99.69	-110.04	-118.68	-125.62	-130.95	-134.97	-138.24
-35.43	-40.08	-45.64	-51.46	-56.21	-57.94	-54.62	-44.85	-28.47	-6.89	17.27	40.96	61.63	77.82	89.3	96.68	100.93	102.97	103.6	103.58	103.73	104.82	107.34	111.31	116.19	121.16	125.39	128.37	130.08	130.89	131.43	132.27	133.83	136.22	139.33	142.82	146.29	149.35	151.66	153.01	153.22	152.14	149.59	145.29	138.91	130.01	118.09	102.71	83.7	61.39	36.74	11.18	-13.67	-36.43	-56.34	-73.27	-87.56	-99.69	-110.04	-118.68	-125.62	-130.95	-134.97	-138.24	-141.28	-144.37	-147.38	-149.82	-151.07	-150.63	-148.32	-144.2	-138.56	-131.64	-123.64	-114.66	-104.95	-94.91	-85.21	-76.67	-70.12	-66.21	-65.22	-66.96	-70.72	-75.45	-79.94	-83.1	-84.16	-82.8	-79.03	-73.16	-65.62	-56.92	-47.62	-38.31	-29.59	-22.02	-16.05	-11.91	-9.59	-8.79	-9	-9.65	-10.24	-10.43	-10.12	-9.36	-8.18	-6.54	-4.26	-1.17	2.74	7.32	12.13	16.6	20.24	22.84	24.56	25.94	27.64	30.18	33.65	37.64	41.44	44.34	45.91	46
-141.28	-144.37	-147.38	-149.82	-151.07	-150.63	-148.32	-144.2	-138.56	-131.64	-123.64	-114.66	-104.95	-94.91	-85.21	-76.67	-70.12	-66.21	-65.22	-66.96	-70.72	-75.45	-79.94	-83.1	-84.16	-82.8	-79.03	-73.16	-65.62	-56.92	-47.62	-38.31	-29.59	-22.02	-16.05	-11.91	-9.59	-8.79	-9	-9.65	-10.24	-10.43	-10.12	-9.36	-8.18	-6.54	-4.26	-1.17	2.74	7.32	12.13	16.6	20.24	22.84	24.56	25.94	27.64	30.18	33.65	37.64	41.44	44.34	45.91	46	44.62	41.89	37.92	33	27.77	23.29	20.68	20.64	23.09	27	30.79	32.93	32.57	29.79	25.45	20.73	16.6	13.49	11.3	9.63	8.11	6.59	5.18	4.08	3.33	2.8	2.2	1.3	0.01	-1.58	-3.29	-5.02	-6.77	-8.61	-10.6	-12.72	-14.88	-16.99	-19	-20.92	-22.8	-24.67	-26.55	-28.44	-30.3	-32.03	-33.48	-34.43	-34.72	-34.27	-33.13	-31.42	-29.25	-26.72	-23.9	-20.86	-17.77	-14.81	-12.16	-9.85	-7.88	-6.2	-4.82	-3.84
44.62	41.89	37.92	33	27.77	23.29	20.68	20.64	23.09	27	30.79	32.93	32.57	29.79	25.45	20.73	16.6	13.49	11.3	9.63	8.11	6.59	5.18	4.08	3.33	2.8	2.2	1.3	0.01	-1.58	-3.29	-5.02	-6.77	-8.61	-10.6	-12.72	-14.88	-16.99	-19	-20.92	-22.8	-24.67	-26.55	-28.44	-30.3	-32.03	-33.48	-34.43	-34.72	-34.27	-33.13	-31.42	-29.25	-26.72	-23.9	-20.86	-17.77	-14.81	-12.16	-9.85	-7.88	-6.2	-4.82	-3.84	-3.38	-3.43	-3.85	-4.45	-5.05	-5.58	-6.09	-6.57	-6.96	-7.11	-6.94	-6.5	-5.98	-5.65	-5.68	-6.16	-7.13	-8.63	-10.77	-13.6	-17.04	-20.85	-24.7	-28.37	-31.86	-35.28	-38.62	-41.64	-43.88	-44.9	-44.57	-43.25	-41.73	-40.97	-41.73	-44.42	-48.95	-54.67	-60.51	-65.03	-66.72	-64.34	-57.38	-46.21	-32.18	-17.27	-3.69	6.68	12.62	13.76	10.64	4.45	-3.25	-10.91	-17.48	-22.54	-26.33	-29.47	-32.55	-35.89	-39.43	-42.76	-45.37	-46.76
-3.38	-3.43	-3.85	-4.45	-5.05	-5.58	-6.09	-6.57	-6.96	-7.11	-6.94	-6.5	-5.98	-5.65	-5.68	-6.16	-7.13	-8.63	-10.77	-13.6	-17.04	-20.85	-24.7	-28.37	-31.86	-35.28	-38.62	-41.64	-43.88	-44.9	-44.57	-43.25	-41.73	-40.97	-41.73	-44.42	-48.95	-54.67	-60.51	-65.03	-66.72	-64.34	-57.38	-46.21	-32.18	-17.27	-3.69	6.68	12.62	13.76	10.64	4.45	-3.25	-10.91	-17.48	-22.54	-26.33	-29.47	-32.55	-35.89	-39.43	-42.76	-45.37	-46.76	-46.5	-44.4	-40.5	-35.12	-28.87	-22.52	-16.76	-12.07	-8.6	-6.28	-4.96	-4.48	-4.67	-5.34	-6.18	-6.92	-7.51	-8.17	-9.3	-11.27	-14.13	-17.45	-20.58	-22.96	-24.54	-25.85	-27.83	-31.4	-37.06	-44.68	-53.46	-62.03	-68.7	-71.8	-70.01	-62.84	-50.82	-35.45	-18.83	-3.04	10.47	21.11	29.07	34.88	39.11	42.09	44.03	45.16	45.78	46.27	46.91	47.82	48.92	50.04	51.13	52.2	53.36	54.64	55.96	57.05	57.63	57.54	56.8	55.55
-46.5	-44.4	-40.5	-35.12	-28.87	-22.52	-16.76	-12.07	-8.6	-6.28	-4.96	-4.48	-4.67	-5.34	-6.18	-6.92	-7.51	-8.17	-9.3	-11.27	-14.13	-17.45	-20.58	-22.96	-24.54	-25.85	-27.83	-31.4	-37.06	-44.68	-53.46	-62.03	-68.7	-71.8	-70.01	-62.84	-50.82	-35.45	-18.83	-3.04	10.47	21.11	29.07	34.88	39.11	42.09	44.03	45.16	45.78	46.27	46.91	47.82	48.92	50.04	51.13	52.2	53.36	54.64	55.96	57.05	57.63	57.54	56.8	55.55	53.91	51.92	49.44	46.33	42.51	38.03	33.14	28.18	23.47	19.2	15.35	11.65	7.71	3.11	-2.38	-8.66	-15.35	-21.89	-27.8	-32.87	-37.35	-41.8	-47.03	-53.69	-62.08	-71.79	-81.6	-89.6	-93.58	-91.7	-83.08	-68.21	-48.82	-27.44	-6.67	11.42	25.68	35.87	42.48	46.37	48.45	49.56	50.31	51.08	52.08	53.33	54.71	56.07	57.27	58.26	59.06	59.79	60.53	61.32	62.02	62.41	62.18	61.09	59.09	56.35	53.17	49.91	46.89	44.18
53.91	51.92	49.44	46.33	42.51	38.03	33.14	28.18	23.47	19.2	15.35	11.65	7.71	3.11	-2.38	-8.66	-15.35	-21.89	-27.8	-32.87	-37.35	-41.8	-47.03	-53.69	-62.08	-71.79	-81.6	-89.6	-93.58	-91.7	-83.08	-68.21	-48.82	-27.44	-6.67	11.42	25.68	35.87	42.48	46.37	48.45	49.56	50.31	51.08	52.08	53.33	54.71	56.07	57.27	58.26	59.06	59.79	60.53	61.32	62.02	62.41	62.18	61.09	59.09	56.35	53.17	49.91	46.89	44.18	41.69	39.15	36.28	32.9	29.12	25.14	21.28	17.67	14.28	10.83	6.99	2.57	-2.46	-7.83	-13.14	-18.02	-22.29	-26.12	-29.93	-34.45	-40.4	-48.22	-57.71	-67.83	-76.71	-82.05	-81.75	-74.63	-60.96	-42.48	-21.92	-2.24	14.26	26.41	34.26	38.64	40.69	41.35	41.26	40.79	40.19	39.75	39.74	40.3	41.3	42.35	43.02	43.04	42.55	42	41.95	42.69	44.06	45.48	46.17	45.58	43.56	40.48	36.96	33.62	30.83	28.63	26.79	25
41.69	39.15	36.28	32.9	29.12	25.14	21.28	17.67	14.28	10.83	6.99	2.57	-2.46	-7.83	-13.14	-18.02	-22.29	-26.12	-29.93	-34.45	-40.4	-48.22	-57.71	-67.83	-76.71	-82.05	-81.75	-74.63	-60.96	-42.48	-21.92	-2.24	14.26	26.41	34.26	38.64	40.69	41.35	41.26	40.79	40.19	39.75	39.74	40.3	41.3	42.35	43.02	43.04	42.55	42	41.95	42.69	44.06	45.48	46.17	45.58	43.56	40.48	36.96	33.62	30.83	28.63	26.79	25	23.03	20.71	18.04	15.11	12.09	9.12	6.3	3.64	1.04	-1.72	-4.87	-8.55	-12.69	-16.96	-20.9	-24.04	-26.2	-27.57	-28.75	-30.6	-33.99	-39.49	-47.11	-56.04	-64.64	-70.74	-72.22	-67.67	-56.94	-41.32	-23.12	-5.04	10.69	22.76	30.91	35.64	37.76	37.99	36.9	34.9	32.44	30.05	28.3	27.62	28.14	29.63	31.63	33.63	35.26	36.45	37.29	37.92	38.38	38.5	38.03	36.73	34.52	31.54	28.12	24.7	21.69	19.34	17.66	16.49
23.03	20.71	18.04	15.11	12.09	9.12	6.3	3.64	1.04	-1.72	-4.87	-8.55	-12.69	-16.96	-20.9	-24.04	-26.2	-27.57	-28.75	-30.6	-33.99	-39.49	-47.11	-56.04	-64.64	-70.74	-72.22	-67.67	-56.94	-41.32	-23.12	-5.04	10.69	22.76	30.91	35.64	37.76	37.99	36.9	34.9	32.44	30.05	28.3	27.62	28.14	29.63	31.63	33.63	35.26	36.45	37.29	37.92	38.38	38.5	38.03	36.73	34.52	31.54	28.12	24.7	21.69	19.34	17.66	16.49	15.42	14.06	12.09	9.41	6.22	2.88	-0.18	-2.67	-4.62	-6.3	-8.19	-10.67	-13.89	-17.65	-21.53	-25.1	-28.16	-30.81	-33.39	-36.38	-40.21	-45.15	-51.21	-58.04	-64.79	-70.14	-72.42	-70.08	-62.28	-49.35	-32.81	-15.04	1.46	14.8	24.13	29.64	32.15	32.61	31.76	30.05	27.73	25.13	22.75	21.22	20.95	22.02	24.02	26.25	28.07	29.16	29.65	29.9	30.28	30.84	31.26	31.1	29.96	27.82	24.98	21.96	19.24	17.1	15.52	14.22
15.42	14.06	12.09	9.41	6.22	2.88	-0.18	-2.67	-4.62	-6.3	-8.19	-10.67	-13.89	-17.65	-21.53	-25.1	-28.16	-30.81	-33.39	-36.38	-40.21	-45.15	-51.21	-58.04	-64.79	-70.14	-72.42	-70.08	-62.28	-49.35	-32.81	-15.04	1.46	14.8	24.13	29.64	32.15	32.61	31.76	30.05	27.73	25.13	22.75	21.22	20.95	22.02	24.02	26.25	28.07	29.16	29.65	29.9	30.28	30.84	31.26	31.1	29.96	27.82	24.98	21.96	19.24	17.1	15.52	14.22	12.84	11.07	8.75	5.99	3.04	0.25	-2.1	-3.89	-5.26	-6.5	-8.02	-10.13	-12.9	-16.19	-19.7	-23.11	-26.22	-28.93	-31.32	-33.56	-35.92	-38.79	-42.59	-47.57	-53.59	-59.83	-64.82	-66.78	-64.23	-56.54	-44.26	-28.98	-12.83	2.16	14.52	23.51	29	31.3	30.9	28.44	24.68	20.46	16.57	13.6	11.87	11.4	12.01	13.39	15.24	17.24	19.21	21.02	22.58	23.88	24.8	25.21	24.92	23.82	22	19.69	17.24	14.94	12.89	11.01
12.84	11.07	8.75	5.99	3.04	0.25	-2.1	-3.89	-5.26	-6.5	-8.02	-10.13	-12.9	-16.19	-19.7	-23.11	-26.22	-28.93	-31.32	-33.56	-35.92	-38.79	-42.59	-47.57	-53.59	-59.83	-64.82	-66.78	-64.23	-56.54	-44.26	-28.98	-12.83	2.16	14.52	23.51	29	31.3	30.9	28.44	24.68	20.46	16.57	13.6	11.87	11.4	12.01	13.39	15.24	17.24	19.21	21.02	22.58	23.88	24.8	25.21	24.92	23.82	22	19.69	17.24	14.94	12.89	11.01	9.15	7.17	5.03	2.79	0.61	-1.41	-3.17	-4.7	-6.12	-7.61	-9.36	-11.52	-14.06	-16.81	-19.55	-22.08	-24.38	-26.69	-29.36	-32.78	-37.22	-42.63	-48.59	-54.24	-58.42	-59.89	-57.62	-51.17	-40.87	-27.81	-13.6	0.05	11.71	20.5	26.14	28.79	28.88	26.88	23.3	18.76	13.96	9.72	6.76	5.5	5.93	7.66	10.04	12.47	14.58	16.23	17.52	18.56	19.41	19.98	20.04	19.35	17.73	15.21	12.02	8.6	5.43	2.84	0.89	-0.71
9.15	7.17	5.03	2.79	0.61	-1.41	-3.17	-4.7	-6.12	-7.61	-9.36	-11.52	-14.06	-16.81	-19.55	-22.08	-24.38	-26.69	-29.36	-32.78	-37.22	-42.63	-48.59	-54.24	-58.42	-59.89	-57.62	-51.17	-40.87	-27.81	-13.6	0.05	11.71	20.5	26.14	28.79	28.88	26.88	23.3	18.76	13.96	9.72	6.76	5.5	5.93	7.66	10.04	12.47	14.58	16.23	17.52	18.56	19.41	19.98	20.04	19.35	17.73	15.21	12.02	8.6	5.43	2.84	0.89	-0.71	-2.42	-4.76	-8.08	-12.33	-17.17	-22	-26.24	-29.54	-31.94	-33.91	-36.2	-39.57	-44.49	-50.86	-57.92	-64.34	-68.47	-68.79	-64.34	-55.03	-41.77	-26.23	-10.46	3.68	14.95	22.84	27.61	29.83	30.23	29.41	27.85	25.92	24.01	22.54	21.83	22.07	23.17	24.81	26.58	28.09	29.12	29.68	29.87	29.83	29.6	29.1	28.14	26.54	24.25	21.37	18.13	14.78	11.48	8.38	5.46	2.72	0.07	-2.65	-5.67	-9.22	-13.43	-18.22	-23.27	-28.18
-2.42	-4.76	-8.08	-12.33	-17.17	-22	-26.24	-29.54	-31.94	-33.91	-36.2	-39.57	-44.49	-50.86	-57.92	-64.34	-68.47	-68.79	-64.34	-55.03	-41.77	-26.23	-10.46	3.68	14.95	22.84	27.61	29.83	30.23	29.41	27.85	25.92	24.01	22.54	21.83	22.07	23.17	24.81	26.58	28.09	29.12	29.68	29.87	29.83	29.6	29.1	28.14	26.54	24.25	21.37	18.13	14.78	11.48	8.38	5.46	2.72	0.07	-2.65	-5.67	-9.22	-13.43	-18.22	-23.27	-28.18	-32.65	-36.67	-40.49	-44.58	-49.4	-55.28	-62.34	-70.44	-79.09	-87.37	-93.82	-96.78	-94.72	-86.87	-73.59	-56.42	-37.68	-19.84	-4.74	6.67	14.39	19.11	21.72	23.06	23.79	24.38	25.13	26.31	28.01	30.21	32.71	35.16	37.26	38.84	39.88	40.55	40.99	41.26	41.21	40.63	39.36	37.41	35.02	32.5	30.17	28.17	26.43	24.7	22.7	20.25	17.38	14.22	11.04	8	5.19	2.39	-0.72	-4.5	-9.19	-14.7	-20.61	-26.38	-31.55	-36.13
-32.65	-36.67	-40.49	-44.58	-49.4	-55.28	-62.34	-70.44	-79.09	-87.37	-93.82	-96.78	-94.72	-86.87	-73.59	-56.42	-37.68	-19.84	-4.74	6.67	14.39	19.11	21.72	23.06	23.79	24.38	25.13	26.31	28.01	30.21	32.71	35.16	37.26	38.84	39.88	40.55	40.99	41.26	41.21	40.63	39.36	37.41	35.02	32.5	30.17	28.17	26.43	24.7	22.7	20.25	17.38	14.22	11.04	8	5.19	2.39	-0.72	-4.5	-9.19	-14.7	-20.61	-26.38	-31.55	-36.13	-40.56	-45.61	-52.02	-60.11	-69.5	-79.03	-86.99	-91.54	-91.11	-84.91	-73.1	-56.85	-38.13	-19.16	-2.02	11.89	22.08	28.86	33.18	36.12	38.57	40.88	43.01	44.6	45.45	45.64	45.57	45.77	46.54	47.86	49.4	50.76	51.68	52.14	52.26	52.16	51.78	50.93	49.42	47.2	44.45	41.48	38.61	36.02	33.71	31.57	29.41	27.16	24.79	22.3	19.66	16.77	13.56	10.1	6.68	3.59	1.09	-0.95	-3.02	-5.72	-9.51	-14.43	-20.06	-25.75
-40.56	-45.61	-52.02	-60.11	-69.5	-79.03	-86.99	-91.54	-91.11	-84.91	-73.1	-56.85	-38.13	-19.16	-2.02	11.89	22.08	28.86	33.18	36.12	38.57	40.88	43.01	44.6	45.45	45.64	45.57	45.77	46.54	47.86	49.4	50.76	51.68	52.14	52.26	52.16	51.78	50.93	49.42	47.2	44.45	41.48	38.61	36.02	33.71	31.57	29.41	27.16	24.79	22.3	19.66	16.77	13.56	10.1	6.68	3.59	1.09	-0.95	-3.02	-5.72	-9.51	-14.43	-20.06	-25.75	-30.89	-35.2	-38.86	-42.35	-46.39	-51.69	-58.75	-67.58	-77.49	-86.93	-93.76	-95.76	-91.38	-80.38	-63.96	-44.49	-24.68	-6.85	7.67	18.53	26.13	31.15	34.24	35.9	36.5	36.5	36.4	36.71	37.72	39.44	41.57	43.67	45.38	46.52	47.22	47.71	48.21	48.77	49.24	49.34	48.76	47.39	45.28	42.71	40.02	37.54	35.4	33.6	32.05	30.56	28.98	27.25	25.26	22.99	20.45	17.69	14.79	11.88	9.03	6.3	3.73	1.35	-0.79	-2.74
-30.89	-35.2	-38.86	-42.35	-46.39	-51.69	-58.75	-67.58	-77.49	-86.93	-93.76	-95.76	-91.38	-80.38	-63.96	-44.49	-24.68	-6.85	7.67	18.53	26.13	31.15	34.24	35.9	36.5	36.5	36.4	36.71	37.72	39.44	41.57	43.67	45.38	46.52	47.22	47.71	48.21	48.77	49.24	49.34	48.76	47.39	45.28	42.71	40.02	37.54	35.4	33.6	32.05	30.56	28.98	27.25	25.26	22.99	20.45	17.69	14.79	11.88	9.03	6.3	3.73	1.35	-0.79	-2.74	-4.65	-6.82	-9.6	-13.21	-17.57	-22.32	-26.93	-30.99	-34.35	-37.28	-40.37	-44.31	-49.71	-56.75	-65.09	-73.71	-81.03	-85.15	-84.44	-78.05	-66.29	-50.66	-33.42	-16.92	-2.9	7.8	15.25	20.02	22.86	24.36	24.93	24.94	24.74	24.75	25.34	26.73	28.94	31.76	34.9	38.01	40.79	43.08	44.79	45.97	46.63	46.74	46.23	45.06	43.24	40.98	38.54	36.18	34.01	32.05	30.14	28.16	26.08	23.95	21.81	19.66	17.41	14.99	12.32	9.45
-4.65	-6.82	-9.6	-13.21	-17.57	-22.32	-26.93	-30.99	-34.35	-37.28	-40.37	-44.31	-49.71	-56.75	-65.09	-73.71	-81.03	-85.15	-84.44	-78.05	-66.29	-50.66	-33.42	-16.92	-2.9	7.8	15.25	20.02	22.86	24.36	24.93	24.94	24.74	24.75	25.34	26.73	28.94	31.76	34.9	38.01	40.79	43.08	44.79	45.97	46.63	46.74	46.23	45.06	43.24	40.98	38.54	36.18	34.01	32.05	30.14	28.16	26.08	23.95	21.81	19.66	17.41	14.99	12.32	9.45	6.44	3.33	0.13	-3.2	-6.71	-10.51	-14.69	-19.27	-24.19	-29.22	-34.02	-38.28	-41.9	-45.16	-48.74	-53.51	-60.15	-68.78	-78.64	-88.14	-95.23	-97.88	-94.72	-85.4	-70.76	-52.54	-33.02	-14.4	1.6	14.08	22.91	28.57	31.78	33.28	33.7	33.52	33.22	33.25	33.97	35.49	37.61	39.84	41.66	42.79	43.29	43.54	43.97	44.8	45.87	46.77	47.05	46.44	45.02	43.12	41.14	39.36	37.79	36.27	34.54	32.44	30.02	27.43	24.88	22.48
6.44	3.33	0.13	-3.2	-6.71	-10.51	-14.69	-19.27	-24.19	-29.22	-34.02	-38.28	-41.9	-45.16	-48.74	-53.51	-60.15	-68.78	-78.64	-88.14	-95.23	-97.88	-94.72	-85.4	-70.76	-52.54	-33.02	-14.4	1.6	14.08	22.91	28.57	31.78	33.28	33.7	33.52	33.22	33.25	33.97	35.49	37.61	39.84	41.66	42.79	43.29	43.54	43.97	44.8	45.87	46.77	47.05	46.44	45.02	43.12	41.14	39.36	37.79	36.27	34.54	32.44	30.02	27.43	24.88	22.48	20.21	17.93	15.54	12.94	10.12	7.07	3.8	0.33	-3.26	-6.82	-10.25	-13.56	-16.91	-20.56	-24.76	-29.5	-34.52	-39.37	-43.68	-47.39	-50.86	-54.8	-59.98	-66.92	-75.64	-85.47	-95.05	-102.47	-105.74	-103.18	-94.09	-79.02	-59.75	-38.83	-18.83	-1.71	11.58	21.03	27.29	31.22	33.65	35.24	36.48	37.74	39.25	41.13	43.36	45.81	48.28	50.58	52.61	54.28	55.66	56.82	57.86	58.77	59.42	59.59	59.04	57.68	55.6	53.06	50.33	47.56
20.21	17.93	15.54	12.94	10.12	7.07	3.8	0.33	-3.26	-6.82	-10.25	-13.56	-16.91	-20.56	-24.76	-29.5	-34.52	-39.37	-43.68	-47.39	-50.86	-54.8	-59.98	-66.92	-75.64	-85.47	-95.05	-102.47	-105.74	-103.18	-94.09	-79.02	-59.75	-38.83	-18.83	-1.71	11.58	21.03	27.29	31.22	33.65	35.24	36.48	37.74	39.25	41.13	43.36	45.81	48.28	50.58	52.61	54.28	55.66	56.82	57.86	58.77	59.42	59.59	59.04	57.68	55.6	53.06	50.33	47.56	44.75	41.8	38.67	35.36	32.01	28.73	25.59	22.65	19.91	17.41	15.12	12.93	10.62	7.94	4.7	0.95	-3.06	-6.96	-10.43	-13.44	-16.24	-19.23	-22.76	-26.98	-31.75	-36.69	-41.37	-45.49	-49.07	-52.5	-56.38	-61.41	-68.1	-76.47	-85.9	-95.07	-102.11	-104.95	-101.98	-92.6	-77.57	-58.82	-39	-20.59	-5.25	6.45	14.87	20.71	24.61	26.9	27.74	27.4	26.36	25.37	25.13	26.04	28.09	30.89	33.93	36.76	39.16	41.17	42.93	44.58
44.75	41.8	38.67	35.36	32.01	28.73	25.59	22.65	19.91	17.41	15.12	12.93	10.62	7.94	4.7	0.95	-3.06	-6.96	-10.43	-13.44	-16.24	-19.23	-22.76	-26.98	-31.75	-36.69	-41.37	-45.49	-49.07	-52.5	-56.38	-61.41	-68.1	-76.47	-85.9	-95.07	-102.11	-104.95	-101.98	-92.6	-77.57	-58.82	-39	-20.59	-5.25	6.45	14.87	20.71	24.61	26.9	27.74	27.4	26.36	25.37	25.13	26.04	28.09	30.89	33.93	36.76	39.16	41.17	42.93	44.58	46.05	47.1	47.42	46.72	44.97	42.43	39.62	37.01	34.89	33.2	31.58	29.65	27.19	24.32	21.39	18.79	16.69	14.95	13.16	10.92	8.03	4.58	0.92	-2.58	-5.75	-8.72	-11.81	-15.38	-19.6	-24.35	-29.23	-33.8	-37.78	-41.15	-44.21	-47.46	-51.45	-56.65	-63.36	-71.56	-80.73	-89.74	-96.86	-100.03	-97.46	-88.33	-73.16	-53.85	-33.1	-13.64	2.6	14.74	22.97	28.08	30.95	32.3	32.58	32.19	31.6	31.34	31.91	33.51	35.95	38.72
46.05	47.1	47.42	46.72	44.97	42.43	39.62	37.01	34.89	33.2	31.58	29.65	27.19	24.32	21.39	18.79	16.69	14.95	13.16	10.92	8.03	4.58	0.92	-2.58	-5.75	-8.72	-11.81	-15.38	-19.6	-24.35	-29.23	-33.8	-37.78	-41.15	-44.21	-47.46	-51.45	-56.65	-63.36	-71.56	-80.73	-89.74	-96.86	-100.03	-97.46	-88.33	-73.16	-53.85	-33.1	-13.64	2.6	14.74	22.97	28.08	30.95	32.3	32.58	32.19	31.6	31.34	31.91	33.51	35.95	38.72	41.23	43.1	44.37	45.36	46.42	47.72	49.04	49.96	50.1	49.3	47.67	45.54	43.19	40.85	38.56	36.26	33.84	31.21	28.4	25.53	22.8	20.44	18.54	16.98	15.42	13.45	10.79	7.41	3.59	-0.27	-3.84	-6.97	-9.79	-12.6	-15.73	-19.4	-23.69	-28.5	-33.59	-38.74	-43.79	-48.69	-53.56	-58.65	-64.34	-71.02	-78.84	-87.52	-96.08	-102.84	-105.76	-103.04	-93.81	-78.55	-59.1	-38.08	-18.15	-1.24	11.8	21.03	27.09	30.72	32.48	32.77
41.23	43.1	44.37	45.36	46.42	47.72	49.04	49.96	50.1	49.3	47.67	45.54	43.19	40.85	38.56	36.26	33.84	31.21	28.4	25.53	22.8	20.44	18.54	16.98	15.42	13.45	10.79	7.41	3.59	-0.27	-3.84	-6.97	-9.79	-12.6	-15.73	-19.4	-23.69	-28.5	-33.59	-38.74	-43.79	-48.69	-53.56	-58.65	-64.34	-71.02	-78.84	-87.52	-96.08	-102.84	-105.76	-103.04	-93.81	-78.55	-59.1	-38.08	-18.15	-1.24	11.8	21.03	27.09	30.72	32.48	32.77	31.97	30.57	29.2	28.52	28.98	30.69	33.36	36.41	39.2	41.31	42.67	43.51	44.26	45.21	46.34	47.3	47.55	46.66	44.55	41.56	38.23	35.1	32.39	30	27.66	25.09	22.28	19.43	16.82	14.67	12.98	11.5	9.91	7.97	5.59	2.94	0.23	-2.31	-4.64	-6.93	-9.5	-12.72	-16.85	-21.84	-27.37	-32.87	-37.78	-41.77	-44.89	-47.61	-50.63	-54.75	-60.56	-68.21	-77.28	-86.65	-94.66	-99.29	-98.75	-91.95	-78.97	-61.14	-40.71	-20.28
31.97	30.57	29.2	28.52	28.98	30.69	33.36	36.41	39.2	41.31	42.67	43.51	44.26	45.21	46.34	47.3	47.55	46.66	44.55	41.56	38.23	35.1	32.39	30	27.66	25.09	22.28	19.43	16.82	14.67	12.98	11.5	9.91	7.97	5.59	2.94	0.23	-2.31	-4.64	-6.93	-9.5	-12.72	-16.85	-21.84	-27.37	-32.87	-37.78	-41.77	-44.89	-47.61	-50.63	-54.75	-60.56	-68.21	-77.28	-86.65	-94.66	-99.29	-98.75	-91.95	-78.97	-61.14	-40.71	-20.28	-2.09	12.44	22.86	29.51	33.14	34.63	34.68	33.86	32.59	31.26	30.31	30.14	31.02	33.05	36.01	39.46	42.83	45.65	47.7	49.03	49.81	50.25	50.35	49.94	48.78	46.77	44.07	41.06	38.17	35.67	33.54	31.5	29.22	26.55	23.63	20.83	18.5	16.76	15.42	14.01	12.03	9.15	5.37	1.02	-3.38	-7.35	-10.63	-13.36	-15.95	-18.98	-22.85	-27.64	-33.04	-38.51	-43.55	-47.94	-51.86	-55.77	-60.22	-65.68	-72.46	-80.58	-89.64	-98.69
-2.09	12.44	22.86	29.51	33.14	34.63	34.68	33.86	32.59	31.26	30.31	30.14	31.02	33.05	36.01	39.46	42.83	45.65	47.7	49.03	49.81	50.25	50.35	49.94	48.78	46.77	44.07	41.06	38.17	35.67	33.54	31.5	29.22	26.55	23.63	20.83	18.5	16.76	15.42	14.01	12.03	9.15	5.37	1.02	-3.38	-7.35	-10.63	-13.36	-15.95	-18.98	-22.85	-27.64	-33.04	-38.51	-43.55	-47.94	-51.86	-55.77	-60.22	-65.68	-72.46	-80.58	-89.64	-98.69	-106.09	-109.73	-107.6	-98.54	-82.81	-62.19	-39.53	-17.84	0.52	14.35	23.62	29.08	31.76	32.6	32.31	31.43	30.42	29.67	29.54	30.26	31.87	34.2	36.91	39.66	42.15	44.27	46.06	47.63	48.96	49.95	50.34	49.91	48.54	46.3	43.5	40.53	37.82	35.63	33.94	32.5	30.89	28.76	25.94	22.59	19.11	16.02	13.69	12.22	11.35	10.59	9.41	7.47	4.67	1.24	-2.46	-6.05	-9.33	-12.34	-15.32	-18.57	-22.29	-26.47	-30.92	-35.36
-106.09	-109.73	-107.6	-98.54	-82.81	-62.19	-39.53	-17.84	0.52	14.35	23.62	29.08	31.76	32.6	32.31	31.43	30.42	29.67	29.54	30.26	31.87	34.2	36.91	39.66	42.15	44.27	46.06	47.63	48.96	49.95	50.34	49.91	48.54	46.3	43.5	40.53	37.82	35.63	33.94	32.5	30.89	28.76	25.94	22.59	19.11	16.02	13.69	12.22	11.35	10.59	9.41	7.47	4.67	1.24	-2.46	-6.05	-9.33	-12.34	-15.32	-18.57	-22.29	-26.47	-30.92	-35.36	-39.59	-43.49	-47.15	-50.78	-54.8	-59.71	-66.04	-74	-83.2	-92.46	-99.84	-103.08	-100.32	-90.67	-74.62	-53.9	-31.08	-8.88	10.44	25.44	35.63	41.31	43.3	42.7	40.59	37.98	35.65	34.21	34.01	35.17	37.48	40.46	43.48	45.94	47.55	48.33	48.6	48.75	48.98	49.14	48.83	47.61	45.31	42.16	38.7	35.49	32.78	30.41	27.94	24.95	21.35	17.4	13.57	10.22	7.41	4.9	2.37	-0.38	-3.3	-6.12	-8.62	-10.72	-12.58	-14.5
-39.59	-43.49	-47.15	-50.78	-54.8	-59.71	-66.04	-74	-83.2	-92.46	-99.84	-103.08	-100.32	-90.67	-74.62	-53.9	-31.08	-8.88	10.44	25.44	35.63	41.31	43.3	42.7	40.59	37.98	35.65	34.21	34.01	35.17	37.48	40.46	43.48	45.94	47.55	48.33	48.6	48.75	48.98	49.14	48.83	47.61	45.31	42.16	38.7	35.49	32.78	30.41	27.94	24.95	21.35	17.4	13.57	10.22	7.41	4.9	2.37	-0.38	-3.3	-6.12	-8.62	-10.72	-12.58	-14.5	-16.82	-19.71	-23.18	-27.13	-31.4	-35.81	-40.19	-44.4	-48.33	-52.03	-55.7	-59.82	-64.98	-71.69	-80.06	-89.49	-98.54	-105.11	-106.84	-101.93	-89.82	-71.49	-49.32	-26.32	-5.28	11.93	24.6	32.95	37.71	39.73	39.83	38.8	37.43	36.45	36.33	37.26	39.03	41.31	43.72	46.02	48.11	49.98	51.62	52.97	53.95	54.45	54.41	53.74	52.4	50.39	47.84	44.97	42.07	39.4	37.06	34.96	32.9	30.63	28.02	25.1	22.05	19.08	16.38	13.92
-16.82	-19.71	-23.18	-27.13	-31.4	-35.81	-40.19	-44.4	-48.33	-52.03	-55.7	-59.82	-64.98	-71.69	-80.06	-89.49	-98.54	-105.11	-106.84	-101.93	-89.82	-71.49	-49.32	-26.32	-5.28	11.93	24.6	32.95	37.71	39.73	39.83	38.8	37.43	36.45	36.33	37.26	39.03	41.31	43.72	46.02	48.11	49.98	51.62	52.97	53.95	54.45	54.41	53.74	52.4	50.39	47.84	44.97	42.07	39.4	37.06	34.96	32.9	30.63	28.02	25.1	22.05	19.08	16.38	13.92	11.56	9.02	6.1	2.72	-0.96	-4.68	-8.19	-11.41	-14.5	-17.78	-21.59	-26.03	-30.9	-35.76	-40.14	-43.85	-47.14	-50.64	-55.12	-61.2	-69.17	-78.79	-89.32	-99.51	-107.63	-111.78	-110.22	-101.95	-87.12	-67.2	-44.59	-22.09	-2.1	13.79	24.98	31.68	34.64	34.85	33.34	31.05	28.74	26.96	26.03	26.15	27.37	29.62	32.66	36.07	39.45	42.4	44.77	46.55	47.78	48.5	48.68	48.28	47.34	45.99	44.37	42.54	40.48	38.1	35.38	32.42
11.56	9.02	6.1	2.72	-0.96	-4.68	-8.19	-11.41	-14.5	-17.78	-21.59	-26.03	-30.9	-35.76	-40.14	-43.85	-47.14	-50.64	-55.12	-61.2	-69.17	-78.79	-89.32	-99.51	-107.63	-111.78	-110.22	-101.95	-87.12	-67.2	-44.59	-22.09	-2.1	13.79	24.98	31.68	34.64	34.85	33.34	31.05	28.74	26.96	26.03	26.15	27.37	29.62	32.66	36.07	39.45	42.4	44.77	46.55	47.78	48.5	48.68	48.28	47.34	45.99	44.37	42.54	40.48	38.1	35.38	32.42	29.37	26.33	23.28	20.05	16.51	12.66	8.63	4.7	1.12	-2.02	-4.78	-7.36	-10.04	-13.04	-16.54	-20.64	-25.36	-30.65	-36.31	-42.05	-47.54	-52.5	-56.97	-61.39	-66.46	-72.93	-81.02	-90.03	-98.23	-103.24	-102.84	-95.72	-82.09	-63.54	-42.54	-21.7	-3	12.39	24.05	32.02	36.53	37.96	36.85	33.98	30.36	27.07	24.98	24.52	25.66	27.97	30.78	33.55	35.96	38.01	39.86	41.66	43.37	44.67	45.07	44.15	41.81	38.34	34.35	30.58
29.37	26.33	23.28	20.05	16.51	12.66	8.63	4.7	1.12	-2.02	-4.78	-7.36	-10.04	-13.04	-16.54	-20.64	-25.36	-30.65	-36.31	-42.05	-47.54	-52.5	-56.97	-61.39	-66.46	-72.93	-81.02	-90.03	-98.23	-103.24	-102.84	-95.72	-82.09	-63.54	-42.54	-21.7	-3	12.39	24.05	32.02	36.53	37.96	36.85	33.98	30.36	27.07	24.98	24.52	25.66	27.97	30.78	33.55	35.96	38.01	39.86	41.66	43.37	44.67	45.07	44.15	41.81	38.34	34.35	30.58	27.51	25.22	23.39	21.46	19.02	15.93	12.4	8.76	5.3	2.1	-0.98	-4.19	-7.74	-11.68	-16.01	-20.67	-25.59	-30.68	-35.74	-40.56	-45	-49.18	-53.62	-59.13	-66.47	-75.95	-86.96	-97.94	-106.53	-110.28	-107.33	-97.04	-80.29	-59.22	-36.61	-15.18	3.09	17.22	27.13	33.31	36.57	37.75	37.65	37.02	36.51	36.67	37.78	39.8	42.42	45.19	47.65	49.51	50.76	51.59	52.31	53.14	54.03	54.65	54.54	53.23	50.59	46.82	42.42	38
27.51	25.22	23.39	21.46	19.02	15.93	12.4	8.76	5.3	2.1	-0.98	-4.19	-7.74	-11.68	-16.01	-20.67	-25.59	-30.68	-35.74	-40.56	-45	-49.18	-53.62	-59.13	-66.47	-75.95	-86.96	-97.94	-106.53	-110.28	-107.33	-97.04	-80.29	-59.22	-36.61	-15.18	3.09	17.22	27.13	33.31	36.57	37.75	37.65	37.02	36.51	36.67	37.78	39.8	42.42	45.19	47.65	49.51	50.76	51.59	52.31	53.14	54.03	54.65	54.54	53.23	50.59	46.82	42.42	38	34.03	30.67	27.76	24.88	21.65	17.83	13.47	8.83	4.23	-0.16	-4.4	-8.79	-13.67	-19.28	-25.53	-32.14	-38.72	-45	-51.01	-56.98	-63.33	-70.42	-78.59	-87.99	-98.45	-109.26	-118.99	-125.61	-126.83	-120.93	-107.41	-87.39	-63.44	-38.81	-16.41	1.83	15.32	24.56	30.6	34.58	37.43	39.75	41.98	44.44	47.36	50.87	54.91	59.19	63.22	66.43	68.38	68.92	68.28	67.02	65.78	64.97	64.61	64.18	62.88	59.98	55.19	48.89	42	35.59
34.03	30.67	27.76	24.88	21.65	17.83	13.47	8.83	4.23	-0.16	-4.4	-8.79	-13.67	-19.28	-25.53	-32.14	-38.72	-45	-51.01	-56.98	-63.33	-70.42	-78.59	-87.99	-98.45	-109.26	-118.99	-125.61	-126.83	-120.93	-107.41	-87.39	-63.44	-38.81	-16.41	1.83	15.32	24.56	30.6	34.58	37.43	39.75	41.98	44.44	47.36	50.87	54.91	59.19	63.22	66.43	68.38	68.92	68.28	67.02	65.78	64.97	64.61	64.18	62.88	59.98	55.19	48.89	42	35.59	30.4	26.58	23.61	20.64	16.91	12.02	6.08	-0.43	-6.88	-12.81	-17.94	-22.34	-26.34	-30.49	-35.45	-41.78	-49.76	-59.08	-68.72	-76.96	-81.74	-81.18	-74.24	-61.15	-43.46	-23.66	-4.48	11.83	24	31.87	36.07	37.61	37.51	36.52	35.23	34.02	33.24	33.16	33.91	35.44	37.48	39.68	41.68	43.29	44.52	45.42	46.03	46.25	45.91	44.78	42.81	40.14	37.03	33.83	30.76	27.92	25.23	22.5	19.51	16.13	12.39	8.44	4.53	0.79
30.4	26.58	23.61	20.64	16.91	12.02	6.08	-0.43	-6.88	-12.81	-17.94	-22.34	-26.34	-30.49	-35.45	-41.78	-49.76	-59.08	-68.72	-76.96	-81.74	-81.18	-74.24	-61.15	-43.46	-23.66	-4.48	11.83	24	31.87	36.07	37.61	37.51	36.52	35.23	34.02	33.24	33.16	33.91	35.44	37.48	39.68	41.68	43.29	44.52	45.42	46.03	46.25	45.91	44.78	42.81	40.14	37.03	33.83	30.76	27.92	25.23	22.5	19.51	16.13	12.39	8.44	4.53	0.79	-2.8	-6.44	-10.43	-14.94	-19.87	-24.91	-29.65	-33.88	-37.77	-41.88	-47.01	-53.84	-62.61	-72.83	-83.15	-91.56	-95.83	-94.13	-85.65	-70.9	-51.67	-30.55	-10.21	7.2	20.47	29.31	34.09	35.55	34.5	31.75	28.15	24.52	21.69	20.26	20.53	22.43	25.51	29.15	32.72	35.72	37.91	39.23	39.74	39.55	38.71	37.22	35.11	32.47	29.54	26.69	24.27	22.54	21.42	20.62	19.63	18.02	15.64	12.63	9.32	6.12	3.29	0.83	-1.44	-3.85
-2.8	-6.44	-10.43	-14.94	-19.87	-24.91	-29.65	-33.88	-37.77	-41.88	-47.01	-53.84	-62.61	-72.83	-83.15	-91.56	-95.83	-94.13	-85.65	-70.9	-51.67	-30.55	-10.21	7.2	20.47	29.31	34.09	35.55	34.5	31.75	28.15	24.52	21.69	20.26	20.53	22.43	25.51	29.15	32.72	35.72	37.91	39.23	39.74	39.55	38.71	37.22	35.11	32.47	29.54	26.69	24.27	22.54	21.42	20.62	19.63	18.02	15.64	12.63	9.32	6.12	3.29	0.83	-1.44	-3.85	-6.71	-10.24	-14.48	-19.32	-24.48	-29.63	-34.47	-38.96	-43.3	-48.09	-54.08	-61.93	-71.67	-82.4	-92.14	-98.25	-98.15	-90.36	-75.04	-54.11	-30.67	-7.96	11.48	26.39	36.74	43.25	46.83	48.18	47.82	46.19	43.9	41.67	40.3	40.34	41.96	44.82	48.23	51.41	53.77	55.06	55.44	55.31	55.13	55.08	55	54.44	52.86	49.96	45.81	40.93	36	31.59	27.97	25.02	22.38	19.67	16.63	13.17	9.36	5.28	1.11	-3.01	-6.95	-10.72
-6.71	-10.24	-14.48	-19.32	-24.48	-29.63	-34.47	-38.96	-43.3	-48.09	-54.08	-61.93	-71.67	-82.4	-92.14	-98.25	-98.15	-90.36	-75.04	-54.11	-30.67	-7.96	11.48	26.39	36.74	43.25	46.83	48.18	47.82	46.19	43.9	41.67	40.3	40.34	41.96	44.82	48.23	51.41	53.77	55.06	55.44	55.31	55.13	55.08	55	54.44	52.86	49.96	45.81	40.93	36	31.59	27.97	25.02	22.38	19.67	16.63	13.17	9.36	5.28	1.11	-3.01	-6.95	-10.72	-14.5	-18.64	-23.49	-29.18	-35.52	-41.96	-47.93	-53.03	-57.38	-61.59	-66.59	-73.28	-82.16	-92.98	-104.62	-115.09	-121.93	-122.76	-116.05	-101.67	-81.03	-56.79	-32.08	-9.67	8.55	21.89	30.68	35.91	38.76	40.33	41.39	42.4	43.57	45.01	46.75	48.81	51.11	53.41	55.41	56.88	57.82	58.5	59.25	60.27	61.41	62.24	62.19	60.88	58.27	54.69	50.64	46.62	42.92	39.63	36.68	33.9	31.08	28.05	24.62	20.73	16.4	11.87	7.46	3.53
-14.5	-18.64	-23.49	-29.18	-35.52	-41.96	-47.93	-53.03	-57.38	-61.59	-66.59	-73.28	-82.16	-92.98	-104.62	-115.09	-121.93	-122.76	-116.05	-101.67	-81.03	-56.79	-32.08	-9.67	8.55	21.89	30.68	35.91	38.76	40.33	41.39	42.4	43.57	45.01	46.75	48.81	51.11	53.41	55.41	56.88	57.82	58.5	59.25	60.27	61.41	62.24	62.19	60.88	58.27	54.69	50.64	46.62	42.92	39.63	36.68	33.9	31.08	28.05	24.62	20.73	16.4	11.87	7.46	3.53	0.2	-2.68	-5.58	-9.04	-13.43	-18.77	-24.75	-30.86	-36.66	-41.97	-46.87	-51.66	-56.73	-62.45	-69.25	-77.47	-87.17	-97.79	-107.93	-115.38	-117.61	-112.62	-99.7	-79.91	-55.87	-31.01	-8.54	9.42	22.2	30.33	34.98	37.4	38.51	38.93	39.06	39.27	39.92	41.24	43.25	45.73	48.3	50.6	52.4	53.74	54.74	55.59	56.33	56.86	56.88	56.06	54.12	51	46.83	41.99	36.92	32.03	27.59	23.64	20.06	16.53	12.73	8.35	3.24	-2.49
0.2	-2.68	-5.58	-9.04	-13.43	-18.77	-24.75	-30.86	-36.66	-41.97	-46.87	-51.66	-56.73	-62.45	-69.25	-77.47	-87.17	-97.79	-107.93	-115.38	-117.61	-112.62	-99.7	-79.91	-55.87	-31.01	-8.54	9.42	22.2	30.33	34.98	37.4	38.51	38.93	39.06	39.27	39.92	41.24	43.25	45.73	48.3	50.6	52.4	53.74	54.74	55.59	56.33	56.86	56.88	56.06	54.12	51	46.83	41.99	36.92	32.03	27.59	23.64	20.06	16.53	12.73	8.35	3.24	-2.49	-8.52	-14.39	-19.66	-24.12	-27.84	-31.19	-34.71	-38.99	-44.56	-51.79	-60.74	-70.93	-81.13	-89.4	-93.4	-91.11	-81.58	-65.49	-45.01	-23.22	-3.13	13.13	24.74	31.93	35.55	36.53	35.69	33.62	30.94	28.34	26.48	25.85	26.63	28.61	31.3	34.08	36.46	38.17	39.24	39.85	40.18	40.28	39.97	38.92	36.85	33.69	29.7	25.37	21.24	17.65	14.63	11.87	9.02	5.82	2.3	-1.28	-4.6	-7.54	-10.16	-12.8	-15.8	-19.39	-23.57	-28.17
-8.52	-14.39	-19.66	-24.12	-27.84	-31.19	-34.71	-38.99	-44.56	-51.79	-60.74	-70.93	-81.13	-89.4	-93.4	-91.11	-81.58	-65.49	-45.01	-23.22	-3.13	13.13	24.74	31.93	35.55	36.53	35.69	33.62	30.94	28.34	26.48	25.85	26.63	28.61	31.3	34.08	36.46	38.17	39.24	39.85	40.18	40.28	39.97	38.92	36.85	33.69	29.7	25.37	21.24	17.65	14.63	11.87	9.02	5.82	2.3	-1.28	-4.6	-7.54	-10.16	-12.8	-15.8	-19.39	-23.57	-28.17	-32.88	-37.42	-41.59	-45.37	-48.91	-52.61	-56.99	-62.69	-70.24	-79.69	-90.37	-100.76	-108.67	-111.75	-108.23	-97.49	-80.34	-58.82	-35.62	-13.39	5.89	21.14	32.11	39.07	42.57	43.25	41.86	39.3	36.58	34.76	34.73	36.89	41.13	46.8	52.96	58.71	63.39	66.78	68.91	69.92	69.82	68.47	65.64	61.31	55.71	49.4	43.11	37.44	32.68	28.73	25.13	21.38	17.06	12.08	6.73	1.48	-3.21	-7.17	-10.59	-13.95	-17.83	-22.58	-28.22	-34.41
-32.88	-37.42	-41.59	-45.37	-48.91	-52.61	-56.99	-62.69	-70.24	-79.69	-90.37	-100.76	-108.67	-111.75	-108.23	-97.49	-80.34	-58.82	-35.62	-13.39	5.89	21.14	32.11	39.07	42.57	43.25	41.86	39.3	36.58	34.76	34.73	36.89	41.13	46.8	52.96	58.71	63.39	66.78	68.91	69.92	69.82	68.47	65.64	61.31	55.71	49.4	43.11	37.44	32.68	28.73	25.13	21.38	17.06	12.08	6.73	1.48	-3.21	-7.17	-10.59	-13.95	-17.83	-22.58	-28.22	-34.41	-40.68	-46.6	-51.97	-56.89	-61.68	-66.8	-72.78	-80.11	-89	-99.17	-109.58	-118.38	-123.19	-121.79	-112.87	-96.61	-74.86	-50.53	-26.79	-6.11	10.22	22.08	30.03	34.84	37.14	37.41	36.18	34.24	32.55	32	33.11	35.82	39.57	43.56	47.08	49.71	51.44	52.59	53.52	54.49	55.44	56.07	55.98	54.88	52.76	49.9	46.71	43.62	40.88	38.54	36.44	34.33	31.97	29.2	26	22.52	18.99	15.7	12.87	10.45	8.16	5.5	2.05	-2.38
-40.68	-46.6	-51.97	-56.89	-61.68	-66.8	-72.78	-80.11	-89	-99.17	-109.58	-118.38	-123.19	-121.79	-112.87	-96.61	-74.86	-50.53	-26.79	-6.11	10.22	22.08	30.03	34.84	37.14	37.41	36.18	34.24	32.55	32	33.11	35.82	39.57	43.56	47.08	49.71	51.44	52.59	53.52	54.49	55.44	56.07	55.98	54.88	52.76	49.9	46.71	43.62	40.88	38.54	36.44	34.33	31.97	29.2	26	22.52	18.99	15.7	12.87	10.45	8.16	5.5	2.05	-2.38	-7.55	-12.98	-18.19	-22.96	-27.51	-32.35	-38.12	-45.26	-53.99	-64.13	-75.1	-85.76	-94.35	-98.72	-96.8	-87.43	-70.92	-49.22	-25.4	-2.73	16.29	30.46	39.83	45.2	47.54	47.65	46.1	43.44	40.36	37.63	36.05	36.06	37.67	40.36	43.37	45.93	47.62	48.47	48.81	49.12	49.62	50.17	50.38	49.74	47.95	45.06	41.36	37.31	33.26	29.43	25.92	22.77	19.98	17.49	15.13	12.61	9.69	6.31	2.61	-1.07	-4.39	-7.18	-9.6	-12.01
-7.55	-12.98	-18.19	-22.96	-27.51	-32.35	-38.12	-45.26	-53.99	-64.13	-75.1	-85.76	-94.35	-98.72	-96.8	-87.43	-70.92	-49.22	-25.4	-2.73	16.29	30.46	39.83	45.2	47.54	47.65	46.1	43.44	40.36	37.63	36.05	36.06	37.67	40.36	43.37	45.93	47.62	48.47	48.81	49.12	49.62	50.17	50.38	49.74	47.95	45.06	41.36	37.31	33.26	29.43	25.92	22.77	19.98	17.49	15.13	12.61	9.69	6.31	2.61	-1.07	-4.39	-7.18	-9.6	-12.01	-14.92	-18.67	-23.36	-28.8	-34.55	-40.1	-45.06	-49.29	-53.01	-56.79	-61.4	-67.55	-75.58	-85.1	-94.85	-102.82	-106.62	-104.25	-94.7	-78.41	-57.26	-34.04	-11.73	7.29	21.67	31.17	36.36	38.18	37.61	35.49	32.55	29.48	26.93	25.45	25.31	26.43	28.34	30.44	32.23	33.48	34.33	35.08	35.98	36.99	37.8	38	37.29	35.62	33.21	30.4	27.51	24.75	22.26	20.1	18.27	16.75	15.37	13.89	12.08	9.81	7.12	4.19	1.27	-1.46
-14.92	-18.67	-23.36	-28.8	-34.55	-40.1	-45.06	-49.29	-53.01	-56.79	-61.4	-67.55	-75.58	-85.1	-94.85	-102.82	-106.62	-104.25	-94.7	-78.41	-57.26	-34.04	-11.73	7.29	21.67	31.17	36.36	38.18	37.61	35.49	32.55	29.48	26.93	25.45	25.31	26.43	28.34	30.44	32.23	33.48	34.33	35.08	35.98	36.99	37.8	38	37.29	35.62	33.21	30.4	27.51	24.75	22.26	20.1	18.27	16.75	15.37	13.89	12.08	9.81	7.12	4.19	1.27	-1.46	-3.95	-6.27	-8.64	-11.29	-14.48	-18.32	-22.75	-27.54	-32.32	-36.72	-40.5	-43.66	-46.48	-49.46	-53.22	-58.38	-65.27	-73.63	-82.48	-90.05	-94.18	-92.86	-85	-70.79	-51.84	-30.69	-10.1	7.69	21.37	30.65	36	38.24	38.18	36.52	33.86	30.8	28	26.13	25.67	26.77	29.15	32.29	35.53	38.4	40.7	42.46	43.81	44.75	45.15	44.8	43.49	41.24	38.26	34.87	31.41	28.05	24.86	21.76	18.75	15.84	13.15	10.76	8.71	6.87
-3.95	-6.27	-8.64	-11.29	-14.48	-18.32	-22.75	-27.54	-32.32	-36.72	-40.5	-43.66	-46.48	-49.46	-53.22	-58.38	-65.27	-73.63	-82.48	-90.05	-94.18	-92.86	-85	-70.79	-51.84	-30.69	-10.1	7.69	21.37	30.65	36	38.24	38.18	36.52	33.86	30.8	28	26.13	25.67	26.77	29.15	32.29	35.53	38.4	40.7	42.46	43.81	44.75	45.15	44.8	43.49	41.24	38.26	34.87	31.41	28.05	24.86	21.76	18.75	15.84	13.15	10.76	8.71	6.87	5	2.84	0.2	-2.96	-6.44	-9.91	-13.1	-15.89	-18.44	-21.08	-24.14	-27.79	-31.9	-36.2	-40.41	-44.38	-48.14	-51.92	-56.04	-60.9	-66.9	-74.25	-82.75	-91.49	-98.76	-102.37	-100.29	-91.47	-76.35	-56.82	-35.58	-15.37	1.75	14.69	23.25	27.8	29.08	27.97	25.43	22.41	19.75	17.98	17.31	17.71	19	20.99	23.51	26.38	29.36	32.22	34.74	36.8	38.3	39.17	39.26	38.43	36.64	34.03	30.92	27.79	25.02	22.84	21.23	20.04
5	2.84	0.2	-2.96	-6.44	-9.91	-13.1	-15.89	-18.44	-21.08	-24.14	-27.79	-31.9	-36.2	-40.41	-44.38	-48.14	-51.92	-56.04	-60.9	-66.9	-74.25	-82.75	-91.49	-98.76	-102.37	-100.29	-91.47	-76.35	-56.82	-35.58	-15.37	1.75	14.69	23.25	27.8	29.08	27.97	25.43	22.41	19.75	17.98	17.31	17.71	19	20.99	23.51	26.38	29.36	32.22	34.74	36.8	38.3	39.17	39.26	38.43	36.64	34.03	30.92	27.79	25.02	22.84	21.23	20.04	19.07	18.16	17.18	16.07	14.74	13.12	11.23	9.16	7.06	5.06	3.17	1.25	-0.91	-3.53	-6.72	-10.51	-14.75	-19.17	-23.47	-27.37	-30.76	-33.75	-36.65	-39.93	-44.07	-49.47	-56.22	-63.95	-71.67	-77.72	-80.16	-77.27	-68.18	-53.36	-34.59	-14.43	4.5	20.28	32.01	39.75	44.11	45.84	45.57	43.84	41.14	38.06	35.27	33.31	32.55	33.01	34.46	36.51	38.72	40.79	42.53	43.87	44.73	45.04	44.69	43.6	41.77	39.29	36.3	32.99
19.07	18.16	17.18	16.07	14.74	13.12	11.23	9.16	7.06	5.06	3.17	1.25	-0.91	-3.53	-6.72	-10.51	-14.75	-19.17	-23.47	-27.37	-30.76	-33.75	-36.65	-39.93	-44.07	-49.47	-56.22	-63.95	-71.67	-77.72	-80.16	-77.27	-68.18	-53.36	-34.59	-14.43	4.5	20.28	32.01	39.75	44.11	45.84	45.57	43.84	41.14	38.06	35.27	33.31	32.55	33.01	34.46	36.51	38.72	40.79	42.53	43.87	44.73	45.04	44.69	43.6	41.77	39.29	36.3	32.99	29.58	26.23	23.12	20.31	17.82	15.54	13.32	11	8.5	5.84	3.11	0.39	-2.32	-5.12	-8.11	-11.37	-14.89	-18.6	-22.49	-26.51	-30.68	-34.94	-39.18	-43.31	-47.3	-51.25	-55.52	-60.61	-66.95	-74.62	-83.07	-91.05	-96.76	-98.28	-94.16	-83.95	-68.41	-49.37	-29.27	-10.48	5.25	16.95	24.52	28.45	29.57	28.83	27.22	25.57	24.49	24.32	25.12	26.73	28.78	30.87	32.7	34.14	35.29	36.41	37.71	39.26	40.83	42	42.33	41.55
29.58	26.23	23.12	20.31	17.82	15.54	13.32	11	8.5	5.84	3.11	0.39	-2.32	-5.12	-8.11	-11.37	-14.89	-18.6	-22.49	-26.51	-30.68	-34.94	-39.18	-43.31	-47.3	-51.25	-55.52	-60.61	-66.95	-74.62	-83.07	-91.05	-96.76	-98.28	-94.16	-83.95	-68.41	-49.37	-29.27	-10.48	5.25	16.95	24.52	28.45	29.57	28.83	27.22	25.57	24.49	24.32	25.12	26.73	28.78	30.87	32.7	34.14	35.29	36.41	37.71	39.26	40.83	42	42.33	41.55	39.65	36.91	33.74	30.51	27.47	24.75	22.35	20.25	18.37	16.53	14.58	12.35	9.77	6.83	3.65	0.4	-2.76	-5.74	-8.58	-11.47	-14.67	-18.38	-22.62	-27.18	-31.68	-35.76	-39.21	-42.16	-45.06	-48.53	-53.19	-59.44	-67.23	-75.91	-84.16	-90.13	-91.9	-87.94	-77.75	-62.09	-42.88	-22.72	-4.16	10.93	21.73	28.43	31.85	33.02	32.8	31.81	30.49	29.23	28.35	28.15	28.77	30.15	32.13	34.45	36.95	39.52	42.09	44.53	46.63	48.11
39.65	36.91	33.74	30.51	27.47	24.75	22.35	20.25	18.37	16.53	14.58	12.35	9.77	6.83	3.65	0.4	-2.76	-5.74	-8.58	-11.47	-14.67	-18.38	-22.62	-27.18	-31.68	-35.76	-39.21	-42.16	-45.06	-48.53	-53.19	-59.44	-67.23	-75.91	-84.16	-90.13	-91.9	-87.94	-77.75	-62.09	-42.88	-22.72	-4.16	10.93	21.73	28.43	31.85	33.02	32.8	31.81	30.49	29.23	28.35	28.15	28.77	30.15	32.13	34.45	36.95	39.52	42.09	44.53	46.63	48.11	48.72	48.31	46.89	44.66	41.9	38.96	36.11	33.48	31.11	28.94	26.92	24.93	22.87	20.52	17.77	14.53	10.95	7.32	4.03	1.35	-0.76	-2.57	-4.53	-7.07	-10.45	-14.72	-19.76	-25.25	-30.78	-35.93	-40.34	-43.96	-47.12	-50.52	-54.99	-61.18	-69.25	-78.66	-88.18	-96.04	-100.32	-99.42	-92.5	-79.76	-62.46	-42.71	-22.9	-5.16	9.1	19.36	25.89	29.43	30.77	30.59	29.39	27.62	25.81	24.59	24.51	25.86	28.48	31.84	35.22	38.05
48.72	48.31	46.89	44.66	41.9	38.96	36.11	33.48	31.11	28.94	26.92	24.93	22.87	20.52	17.77	14.53	10.95	7.32	4.03	1.35	-0.76	-2.57	-4.53	-7.07	-10.45	-14.72	-19.76	-25.25	-30.78	-35.93	-40.34	-43.96	-47.12	-50.52	-54.99	-61.18	-69.25	-78.66	-88.18	-96.04	-100.32	-99.42	-92.5	-79.76	-62.46	-42.71	-22.9	-5.16	9.1	19.36	25.89	29.43	30.77	30.59	29.39	27.62	25.81	24.59	24.51	25.86	28.48	31.84	35.22	38.05	40.13	41.56	42.63	43.56	44.32	44.73	44.47	43.35	41.38	38.79	35.94	33.2	30.84	28.92	27.3	25.71	23.9	21.77	19.39	16.96	14.64	12.42	10.16	7.67	4.81	1.69	-1.52	-4.6	-7.53	-10.51	-13.87	-17.9	-22.61	-27.73	-32.75	-37.24	-41.02	-44.35	-47.84	-52.26	-58.25	-65.95	-74.76	-83.38	-89.9	-92.33	-89.18	-79.95	-65.41	-47.37	-28.24	-10.38	4.47	15.36	22.15	25.24	25.39	23.52	20.65	17.78	15.85	15.5	17.01	20.24
40.13	41.56	42.63	43.56	44.32	44.73	44.47	43.35	41.38	38.79	35.94	33.2	30.84	28.92	27.3	25.71	23.9	21.77	19.39	16.96	14.64	12.42	10.16	7.67	4.81	1.69	-1.52	-4.6	-7.53	-10.51	-13.87	-17.9	-22.61	-27.73	-32.75	-37.24	-41.02	-44.35	-47.84	-52.26	-58.25	-65.95	-74.76	-83.38	-89.9	-92.33	-89.18	-79.95	-65.41	-47.37	-28.24	-10.38	4.47	15.36	22.15	25.24	25.39	23.52	20.65	17.78	15.85	15.5	17.01	20.24	24.71	29.74	34.58	38.72	41.86	44.02	45.42	46.34	46.99	47.39	47.44	46.98	45.91	44.3	42.35	40.34	38.46	36.77	35.2	33.62	31.88	29.92	27.71	25.22	22.48	19.52	16.41	13.32	10.39	7.74	5.34	3.03	0.49	-2.6	-6.45	-11.02	-16.01	-21.03	-25.72	-30.03	-34.24	-38.94	-44.82	-52.33	-61.46	-71.45	-80.8	-87.48	-89.41	-85.14	-74.39	-58.31	-39.22	-19.92	-2.88	10.39	19.5	24.97	27.73	28.77	28.88	28.65	28.54	28.91
24.71	29.74	34.58	38.72	41.86	44.02	45.42	46.34	46.99	47.39	47.44	46.98	45.91	44.3	42.35	40.34	38.46	36.77	35.2	33.62	31.88	29.92	27.71	25.22	22.48	19.52	16.41	13.32	10.39	7.74	5.34	3.03	0.49	-2.6	-6.45	-11.02	-16.01	-21.03	-25.72	-30.03	-34.24	-38.94	-44.82	-52.33	-61.46	-71.45	-80.8	-87.48	-89.41	-85.14	-74.39	-58.31	-39.22	-19.92	-2.88	10.39	19.5	24.97	27.73	28.77	28.88	28.65	28.54	28.91	30	31.81	34.15	36.67	39.04	41.01	42.56	43.83	45.03	46.32	47.65	48.79	49.36	49.1	47.88	45.84	43.24	40.43	37.64	34.97	32.4	29.82	27.17	24.44	21.74	19.24	17.06	15.18	13.44	11.57	9.34	6.69	3.72	0.65	-2.34	-5.23	-8.15	-11.34	-14.98	-19.15	-23.73	-28.51	-33.19	-37.48	-41.23	-44.47	-47.61	-51.26	-56.13	-62.65	-70.65	-79.16	-86.52	-90.79	-90.25	-84.06	-72.44	-56.74	-39.07	-21.71	-6.59	5.17	13.27	18.17
30	31.81	34.15	36.67	39.04	41.01	42.56	43.83	45.03	46.32	47.65	48.79	49.36	49.1	47.88	45.84	43.24	40.43	37.64	34.97	32.4	29.82	27.17	24.44	21.74	19.24	17.06	15.18	13.44	11.57	9.34	6.69	3.72	0.65	-2.34	-5.23	-8.15	-11.34	-14.98	-19.15	-23.73	-28.51	-33.19	-37.48	-41.23	-44.47	-47.61	-51.26	-56.13	-62.65	-70.65	-79.16	-86.52	-90.79	-90.25	-84.06	-72.44	-56.74	-39.07	-21.71	-6.59	5.17	13.27	18.17	20.66	21.65	21.85	21.79	21.82	22.16	22.93	24.16	25.81	27.72	29.71	31.61	33.27	34.58	35.51	36.12	36.5	36.81	37.09	37.28	37.14	36.41	34.87	32.51	29.54	26.37	23.41	20.98	19.19	17.93	16.88	15.7	14.1	11.96	9.4	6.7	4.2	2.14	0.55	-0.79	-2.21	-4.1	-6.68	-9.93	-13.62	-17.4	-20.96	-24.14	-27.02	-29.86	-33.03	-36.94	-41.99	-48.44	-56.14	-64.4	-71.79	-76.41	-76.36	-70.52	-59.03	-43.42	-26.11	-9.64
20.66	21.65	21.85	21.79	21.82	22.16	22.93	24.16	25.81	27.72	29.71	31.61	33.27	34.58	35.51	36.12	36.5	36.81	37.09	37.28	37.14	36.41	34.87	32.51	29.54	26.37	23.41	20.98	19.19	17.93	16.88	15.7	14.1	11.96	9.4	6.7	4.2	2.14	0.55	-0.79	-2.21	-4.1	-6.68	-9.93	-13.62	-17.4	-20.96	-24.14	-27.02	-29.86	-33.03	-36.94	-41.99	-48.44	-56.14	-64.4	-71.79	-76.41	-76.36	-70.52	-59.03	-43.42	-26.11	-9.64	4.11	14.27	20.87	24.47	25.74	25.28	23.63	21.37	19.17	17.63	17.17	17.9	19.66	22.06	24.67	27.09	29.05	30.43	31.3	31.85	32.26	32.58	32.68	32.31	31.21	29.35	26.94	24.39	22.13	20.36	18.99	17.68	16.02	13.73	10.79	7.43	3.99	0.83	-1.82	-3.91	-5.53	-6.98	-8.6	-10.79	-13.8	-17.66	-22.08	-26.6	-30.71	-34.11	-36.86	-39.41	-42.45	-46.68	-52.52	-59.88	-68.07	-75.77	-81.31	-83.02	-79.71	-71.07	-57.85	-41.74
4.11	14.27	20.87	24.47	25.74	25.28	23.63	21.37	19.17	17.63	17.17	17.9	19.66	22.06	24.67	27.09	29.05	30.43	31.3	31.85	32.26	32.58	32.68	32.31	31.21	29.35	26.94	24.39	22.13	20.36	18.99	17.68	16.02	13.73	10.79	7.43	3.99	0.83	-1.82	-3.91	-5.53	-6.98	-8.6	-10.79	-13.8	-17.66	-22.08	-26.6	-30.71	-34.11	-36.86	-39.41	-42.45	-46.68	-52.52	-59.88	-68.07	-75.77	-81.31	-83.02	-79.71	-71.07	-57.85	-41.74	-24.96	-9.62	2.76	11.59	17.12	20.14	21.54	22.06	22.13	21.95	21.71	21.66	22.08	23.16	24.86	26.86	28.7	29.97	30.52	30.51	30.31	30.28	30.56	31.07	31.48	31.49	30.93	29.84	28.35	26.62	24.65	22.37	19.73	16.8	13.84	11.11	8.76	6.67	4.6	2.25	-0.45	-3.4	-6.37	-9.23	-12	-14.94	-18.31	-22.27	-26.78	-31.61	-36.47	-41.15	-45.54	-49.66	-53.65	-57.8	-62.5	-68.11	-74.79	-82.15	-89.13	-94.05	-95.03	-90.63
-24.96	-9.62	2.76	11.59	17.12	20.14	21.54	22.06	22.13	21.95	21.71	21.66	22.08	23.16	24.86	26.86	28.7	29.97	30.52	30.51	30.31	30.28	30.56	31.07	31.48	31.49	30.93	29.84	28.35	26.62	24.65	22.37	19.73	16.8	13.84	11.11	8.76	6.67	4.6	2.25	-0.45	-3.4	-6.37	-9.23	-12	-14.94	-18.31	-22.27	-26.78	-31.61	-36.47	-41.15	-45.54	-49.66	-53.65	-57.8	-62.5	-68.11	-74.79	-82.15	-89.13	-94.05	-95.03	-90.63	-80.44	-65.35	-47.37	-29.01	-12.58	0.46	9.68	15.56	19.06	21.26	23	24.82	26.96	29.44	32.18	35.01	37.71	40.13	42.15	43.76	45.06	46.21	47.41	48.76	50.24	51.67	52.7	53.02	52.4	50.85	48.56	45.91	43.26	40.87	38.78	36.88	35.02	33.07	31.02	28.93	26.89	24.91	22.91	20.76	18.4	15.82	13.1	10.33	7.58	4.88	2.11	-0.95	-4.52	-8.76	-13.64	-18.89	-24.07	-28.73	-32.59	-35.67	-38.38	-41.39	-45.47	-51.12
