1677714135.00
64.000000
-0.00
-0.00
-0.00
-0.00
-0.00
-0.00
-0.00
-0.00
-0.00
-0.00
0.00
0.01
0.01
-0.00
-0.03
-0.05
-0.05
0.00
0.13
0.36
0.66
1.01
1.37
1.72
2.06
2.40
2.79
3.24
3.80
4.42
5.06
5.66
6.20
6.68
7.15
7.68
8.31
9.14
10.09
11.04
11.88
12.56
13.14
13.76
14.65
15.96
17.91
20.32
22.90
25.38
27.58
29.57
31.68
34.32
37.81
42.54
48.15
54.10
59.83
64.97
69.58
74.14
79.34
85.71
93.76
103.00
112.62
121.73
129.77
136.75
143.30
150.75
157.77
166.64
177.95
191.79
206.97
220.57
228.25
225.36
208.53
176.87
132.76
80.05
23.07
-34.94
-92.44
-149.16
-205.23
-260.37
-313.74
-363.87
-409.83
-450.91
-486.50
-515.74
-537.23
-549.22
-549.96
-538.37
-514.21
-478.67
-433.88
-382.45
-327.02
-269.84
-212.63
-156.66
-102.95
-52.37
-5.90
35.58
71.43
101.35
125.50
144.38
158.69
169.15
176.37
180.75
182.57
182.07
179.51
175.23
169.65
163.18
156.15
148.81
141.30
133.69
126.02
118.33
110.69
103.16
95.80
88.68
81.83
75.25
68.95
62.95
57.25
51.86
46.78
42.03
37.59
33.45
29.61
26.07
22.81
19.83
17.11
14.67
12.48
10.54
8.83
7.35
6.07
4.97
4.05
3.27
2.62
2.09
1.65
1.30
1.01
0.79
0.61
0.47
0.37
0.28
0.22
0.17
0.14
0.12
0.11
0.12
0.13
0.15
0.19
0.23
0.29
0.35
0.43
0.50
0.59
0.69
0.78
0.88
0.98
1.08
1.18
1.29
1.41
1.53
1.67
1.82
1.98
2.16
2.36
2.58
2.82
3.10
3.41
3.76
4.14
4.57
5.05
5.57
6.14
6.78
7.48
8.26
9.12
10.06
11.04
12.06
13.11
14.18
15.30
16.51
17.86
19.36
21.04
22.83
24.71
26.64
28.62
30.67
32.84
35.18
37.69
40.34
42.98
45.44
47.48
48.86
49.33
48.71
46.88
43.73
39.18
33.16
25.71
16.93
7.07
-3.47
-14.14
-24.35
-33.58
-40.87
-46.47
-50.69
-53.90
-56.41
-58.38
-59.75
-60.36
-60.09
-59.30
-58.01
-56.63
-55.68
-55.60
-56.57
-58.46
-60.80
-63.06
-64.73
-65.41
-65.17
-64.55
-64.54
-66.36
-70.86
-77.89
-85.52
-89.97
-86.61
-71.89
-45.31
-10.49
25.19
53.93
69.68
70.64
59.82
43.45
27.96
17.60
13.29
12.94
13.24
11.39
5.73
-3.86
-16.25
-29.08
-38.58
-39.78
-28.32
-2.40
34.92
75.47
108.16
123.07
115.35
87.28
47.34
5.83
-29.14
-54.41
-71.58
-84.77
-97.36
-108.88
-117.90
-119.52
-109.80
-87.72
-56.21
-20.74
12.74
40.04
59.93
73.74
83.91
91.72
96.81
97.84
94.30
87.80
82.26
82.30
90.54
105.92
123.12
134.57
133.24
116.09
85.35
48.10
13.47
-10.72
-20.48
-16.72
-3.97
11.93
26.25
35.98
40.57
41.63
42.02
44.79
51.82
63.29
77.58
92.02
104.05
112.12
116.08
116.69
115.08
112.04
107.96
102.99
97.52
92.18
87.96
85.84
86.53
90.17
96.22
103.28
109.14
111.22
107.25
96.13
78.37
55.88
31.17
6.42
-17.23
-39.76
-61.92
-84.70
-109.17
-136.37
-167.00
-200.78
-235.78
-268.32
-293.95
-308.83
-311.22
-301.56
-281.60
-253.17
-217.40
-175.13
-128.19
-80.06
-35.66
0.13
24.36
36.94
40.15
37.16
30.61
21.96
12.00
1.69
-7.51
-13.99
-16.81
-16.48
-14.75
-13.75
-14.78
-17.36
-19.22
-17.32
-9.35
5.24
25.04
47.47
70.01
90.95
109.31
124.03
133.23
134.40
125.37
105.99
78.88
49.10
22.24
2.32
-9.73
-16.07
-20.47
-26.39
-35.58
-47.73
-61.03
-73.19
-82.46
-88.20
-90.97
-92.35
-94.41
-99.22
-108.14
-121.43
-138.17
-156.40
-173.55
-187.01
-194.70
-195.66
-190.44
-181.01
-170.29
-161.11
-155.07
-151.98
-149.94
-146.35
-139.10
-127.51
-112.43
-95.86
-80.11
-66.91
-56.77
-48.90
-41.49
-32.74
-21.95
-10.31
-0.66
3.98
2.29
-3.88
-9.81
-9.90
-0.62
17.61
40.64
62.92
80.47
92.52
101.22
109.34
118.29
127.18
133.90
137.01
137.03
136.46
138.21
143.90
152.86
162.58
169.95
172.79
170.53
164.09
155.21
145.67
136.78
129.24
123.12
118.02
113.24
108.04
101.91
94.80
87.10
79.52
72.62
66.55
60.98
55.37
49.35
43.07
37.22
32.73
30.29
30.02
31.34
33.18
34.34
33.93
31.52
27.25
21.68
15.64
10.03
5.62
2.89
1.94
2.63
4.60
7.53
11.11
14.97
18.55
21.12
21.95
20.62
17.35
12.98
8.82
6.16
5.88
8.12
12.42
17.73
22.41
24.27
20.99
10.98
-5.64
-26.63
-48.19
-66.38
-78.59
-84.55
-85.84
-84.91
-83.80
-83.55
-84.42
-86.54
-90.30
-96.09
-103.88
-112.68
-120.67
-125.84
-126.68
-122.75
-114.82
-104.22
-92.26
-79.82
-67.34
-55.07
-43.34
-32.58
-23.41
-16.88
-13.72
-13.94
-16.56
-19.81
-21.81
-20.88
-15.78
-6.26
6.30
19.83
32.34
42.68
50.79
57.03
61.72
64.75
64.89
59.37
45.78
23.52
-5.31
-36.27
-64.58
-86.53
-100.38
-100.33
-83.75
-52.39
-12.67
27.27
61.55
87.18
102.04
106.85
101.10
82.33
47.95
-3.52
-71.57
-150.61
-232.11
-305.47
-360.28
-389.75
-393.26
-375.76
-345.36
-309.90
-274.17
-239.72
-205.64
-170.33
-133.46
-96.53
-61.71
-30.52
-3.03
22.05
46.18
70.55
95.74
121.71
148.36
176.37
207.18
242.17
281.15
320.88
355.49
378.44
385.45
376.73
357.29
334.69
315.59
302.95
295.18
288.07
277.53
261.70
241.36
218.59
195.12
171.45
147.33
122.76
98.89
77.72
61.13
49.79
42.76
37.92
33.05
26.82
19.19
11.15
3.87
-1.82
-5.74
-8.15
-9.29
-9.08
-6.95
-2.09
6.18
17.93
32.38
47.91
62.25
73.14
78.93
79.09
74.35
66.38
57.22
48.48
40.87
34.04
27.04
19.01
9.85
0.39
-8.10
-14.54
-18.69
-21.22
-23.18
-25.28
-27.41
-28.62
-27.67
-23.71
-16.97
-8.99
-2.43
-0.34
-4.96
-16.60
-32.95
-49.61
-61.14
-62.85
-52.24
-29.71
1.41
35.09
63.52
78.54
74.05
49.00
9.34
-32.22
-59.84
-60.55
-29.83
26.01
92.19
151.44
190.61
204.59
196.12
172.57
141.67
108.92
77.28
48.27
23.03
2.53
-13.40
-26.71
-40.75
-58.92
-82.69
-110.69
-139.30
-164.64
-184.54
-199.81
-214.30
-233.43
-262.38
-303.95
-356.81
-414.34
-465.22
-496.09
-496.22
-462.60
-402.86
-334.17
-277.20
-247.67
-249.42
-272.95
-300.57
-315.20
-308.23
-281.78
-245.09
-207.24
-171.54
-134.92
-92.08
-41.11
13.56
62.65
96.88
111.45
107.21
88.49
59.37
21.58
-24.62
-77.70
-132.91
-182.44
-218.25
-235.26
-233.22
-216.30
-190.65
-161.78
-133.08
-105.97
-80.73
-57.52
-36.85
-19.32
-5.07
6.84
18.29
31.41
47.50
66.20
85.34
101.81
113.08
118.48
119.52
119.11
119.92
123.04
127.72
132.02
134.22
133.82
131.75
129.69
128.92
129.61
130.83
131.19
129.61
125.90
120.71
114.94
109.21
103.59
97.76
91.46
84.77
78.16
72.13
66.96
62.47
58.18
53.65
48.87
44.31
40.79
39.01
39.22
40.98
43.37
45.39
46.41
46.42
45.92
45.60
45.81
46.45
46.98
46.80
45.55
43.34
40.58
37.78
35.25
32.96
30.64
27.99
24.96
21.83
19.16
17.57
17.38
18.46
20.11
21.47
21.85
20.96
19.06
16.64
14.25
12.25
10.85
10.10
9.92
10.11
10.21
9.74
8.25
5.57
1.81
-2.58
-7.08
-11.17
-14.40
-16.37
-16.61
-14.83
-10.99
-5.47
1.00
7.55
13.44
18.29
22.04
24.85
26.83
28.01
28.36
27.83
26.45
24.40
21.91
19.25
16.65
14.27
12.30
10.90
10.19
10.26
11.09
12.56
14.34
16.01
17.05
17.01
15.57
12.67
8.61
3.98
-0.52
-4.24
-6.79
-8.16
-8.69
-8.98
-9.71
-11.44
-14.53
-18.98
-24.46
-30.30
-35.66
-39.78
-42.20
-42.84
-41.96
-39.93
-36.93
-32.87
-27.36
-20.06
-11.04
-0.93
9.04
17.45
23.14
25.65
25.36
23.30
20.75
18.85
18.16
18.72
20.05
21.49
22.46
22.69
22.25
21.46
20.67
20.18
20.19
20.82
22.22
24.55
27.83
31.81
35.82
38.99
40.40
39.51
36.30
31.33
25.51
19.80
15.03
11.66
9.81
9.21
9.35
9.59
9.35
8.36
6.62
4.38
1.91
-0.63
-3.28
-6.20
-9.52
-13.21
-16.97
-20.26
-22.47
-23.13
-22.01
-19.29
-15.47
-11.26
-7.38
-4.29
-2.09
-0.51
0.84
2.34
4.09
6.01
7.87
9.47
10.69
11.53
11.98
12.08
11.82
11.30
10.71
10.33
10.43
11.12
12.26
13.57
14.70
15.39
15.46
14.89
13.66
11.79
9.39
6.68
4.07
2.07
1.14
1.41
2.62
4.06
4.84
4.17
1.72
-2.31
-7.22
-12.07
-15.89
-18.00
-18.18
-16.64
-13.90
-10.65
-7.53
-4.92
-2.90
-1.30
0.20
1.81
3.49
4.90
5.43
4.58
2.22
-1.23
-4.85
-7.56
-8.64
-8.30
-7.68
-8.76
-13.73
-23.81
-38.18
-53.41
-64.13
-64.79
-52.15
-27.27
4.18
33.79
53.73
60.14
54.50
42.54
31.21
25.87
28.88
39.89
57.17
78.28
100.02
117.81
126.18
120.65
100.04
67.47
28.95
-9.68
-45.79
-80.71
-117.34
-156.51
-194.57
-224.31
-238.48
-233.96
-213.60
-184.84
-156.03
-132.83
-116.37
-103.77
-90.57
-73.29
-50.73
-24.30
2.50
25.48
41.09
47.85
47.35
44.00
43.37
49.96
65.08
86.59
110.85
135.39
160.48
188.71
222.40
260.90
300.11
333.96
357.26
368.14
368.55
362.73
354.75
346.31
335.89
321.00
300.17
273.64
243.24
211.49
180.68
152.76
128.16
104.80
80.22
52.91
22.09
-11.93
-47.78
-83.29
-114.81
-138.85
-154.52
-161.10
-157.86
-145.47
-125.71
-100.70
-71.89
-38.23
1.74
46.12
92.30
137.62
178.73
213.12
240.36
253.34
249.46
244.07
243.19
241.93
236.72
225.01
206.33
181.92
153.64
124.14
94.55
61.98
23.95
-19.74
-68.33
-119.83
-171.85
-222.17
-268.39
-309.81
-349.74
-392.58
-442.12
-500.95
-568.26
-638.58
-702.19
-746.77
-762.02
-744.20
-696.35
-627.49
-550.95
-481.00
-429.87
-405.61
-410.61
-441.61
-490.57
-545.08
-590.68
-614.68
-609.33
-573.75
-513.39
-437.54
-356.45
-278.61
-209.18
-150.04
-100.93
-60.41
-26.58
2.94
30.73
59.06
89.16
120.72
152.15
181.43
207.06
228.98
248.66
268.57
291.39
319.23
352.75
390.59
429.12
463.01
486.54
495.43
488.42
467.71
438.05
404.78
371.78
340.50
310.37
280.33
250.25
221.50
196.21
175.86
160.33
147.60
134.77
119.40
100.53
79.06
57.30
38.11
24.14
17.10
17.27
23.27
32.35
41.27
47.67
51.09
53.28
57.49
67.05
83.79
107.18
134.27
160.48
180.89
191.61
191.16
181.25
166.44
152.68
144.81
144.27
148.36
151.34
146.95
131.02
102.94
65.62
24.23
-15.39
-48.14
-70.80
-82.81
-86.77
-87.97
-92.74
-105.89
-128.54
-157.62
-187.48
-212.43
-228.96
-236.17
-234.97
-226.69
-212.45
-193.50
-171.69
-149.44
-128.63
-109.43
-89.81
-66.70
-37.93
-4.08
31.08
61.83
82.67
90.20
84.05
66.74
42.66
16.94
-5.75
-22.08
-30.58
-31.74
-27.55
-20.80
-14.18
-9.58
-7.71
-8.22
-10.00
-11.49
-11.09
-7.66
-0.74
9.24
21.41
35.16
51.08
71.40
99.26
136.89
183.42
233.83
279.73
312.17
325.26
318.46
296.52
267.10
237.33
211.37
190.02
172.12
156.55
143.37
133.63
128.31
127.31
129.17
131.80
133.27
132.59
129.73
125.28
119.75
113.13
104.76
93.69
79.07
60.61
38.78
14.63
-10.37
-34.71
-56.90
-75.65
-89.89
-98.87
-102.44
-101.14
-96.25
-89.61
-83.14
-78.56
-77.11
-79.71
-87.19
-100.45
-120.73
-149.54
-188.44
-238.81
-301.64
-377.03
-463.29
-555.81
-646.45
-724.81
-780.87
-808.20
-806.03
-779.38
-736.85
-687.36
-637.47
-589.75
-544.28
-500.51
-458.53
-419.09
-382.79
-349.39
-317.78
-286.65
-253.78
-218.28
-180.88
-143.52
-107.95
-74.89
-43.99
-14.52
13.95
44.38
78.47
115.92
154.82
193.14
229.78
264.54
297.37
327.75
359.81
396.32
437.34
480.45
523.01
564.41
606.36
651.33
700.18
757.42
821.97
886.18
938.53
969.63
977.04
965.61
944.08
884.54
775.12
623.17
454.41
296.95
167.71
71.04
3.58
-38.21
-66.46
-83.85
-91.31
-90.72
-85.75
-80.27
-77.11
-76.60
-79.27
-86.76
-95.47
-102.91
-108.77
-114.71
-122.64
-133.41
-147.09
-164.21
-186.37
-211.75
-238.93
-267.28
-296.71
-327.02
-357.24
-386.31
-413.98
-441.06
-466.94
-491.70
-516.45
-542.99
-572.43
-603.49
-631.58
-649.67
-650.33
-627.80
-581.14
-514.92
-437.47
-357.76
-282.51
-214.99
-155.77
-104.17
-59.21
-19.85
15.41
48.99
83.73
121.85
163.94
208.65
253.35
295.29
333.01
366.99
399.79
435.47
478.19
530.29
590.35
652.21
705.82
739.93
745.95
720.96
668.61
597.12
515.52
430.16
343.06
252.94
157.82
57.65
-44.69
-144.56
-237.27
-319.92
-391.93
-454.28
-508.35
-555.26
-595.76
-630.46
-659.60
-682.37
-696.05
-696.19
-678.09
-639.00
-580.18
-507.13
-427.98
-350.75
-280.91
-220.58
-169.39
-126.18
-90.04
-60.51
-36.68
-16.50
3.17
25.63
53.27
86.89
125.69
167.31
208.47
245.35
274.21
292.27
298.43
293.68
280.63
262.56
242.20
221.10
199.79
178.42
157.59
138.58
122.94
111.77
105.07
101.75
100.09
98.52
96.09
92.72
88.96
85.43
82.42
79.60
76.19
71.36
64.74
56.68
48.22
40.61
34.83
31.15
29.13
27.97
26.87
25.46
23.78
22.12
20.76
19.76
19.03
18.39
17.74
17.08
16.50
16.05
15.69
15.27
14.58
13.45
11.80
9.71
7.35
4.96
2.71
0.67
-1.20
-3.06
-5.06
-7.33
-9.90
-12.66
-15.45
-18.11
-20.57
-22.85
-25.11
-27.53
-30.31
-33.56
-37.27
-41.12
-44.57
-46.84
-47.09
-44.71
-39.43
-31.52
-21.71
-11.08
-0.71
8.47
15.87
21.30
24.83
26.79
27.53
27.40
26.66
25.53
24.21
22.89
21.74
20.90
20.41
20.24
20.33
20.71
21.40
22.42
23.67
24.93
25.90
26.37
26.31
25.87
25.36
24.95
24.71
24.45
23.89
22.76
20.93
18.43
15.48
12.35
9.31
6.52
3.97
1.57
-0.87
-3.45
-6.19
-8.96
-11.65
-14.23
-16.82
-19.64
-22.94
-26.83
-31.23
-35.80
-40.06
-43.36
-45.03
-44.43
-41.18
-35.24
-27.04
-17.41
-7.39
2.00
10.03
16.36
20.99
24.19
26.26
27.42
27.76
27.32
26.22
24.69
23.14
22.01
21.56
21.89
22.77
23.79
24.51
24.64
24.14
23.16
21.94
20.69
19.54
18.50
17.54
16.64
15.76
14.84
13.77
12.45
10.77
8.75
6.47
4.13
1.91
-0.11
-1.95
-3.77
-5.78
-8.18
-11.03
-14.28
-17.77
-21.33
-24.85
-28.38
-32.15
-36.24
-40.73
-45.49
-50.24
-54.36
-57.03
-57.43
-55.01
-49.70
-41.74
-31.86
-21.18
-11.04
-2.65
3.21
6.26
6.81
5.50
3.54
1.90
0.77
-0.50
-2.96
-7.27
-13.21
-19.73
-25.48
-28.55
-28.56
-27.20
-27.03
-29.30
-32.40
-32.25
-24.59
-7.47
19.93
54.72
90.92
121.63
141.89
150.29
148.44
139.47
127.16
120.08
126.15
149.44
188.22
235.76
282.51
318.39
335.35
330.42
313.52
299.80
302.50
326.83
368.95
418.86
464.96
498.30
485.74
413.40
292.75
155.68
32.05
-66.29
-142.80
-205.24
-255.56
-298.43
-330.11
-347.77
-354.10
-357.48
-367.58
-391.30
-428.33
-476.07
-531.63
-587.32
-635.74
-670.97
-688.69
-685.21
-657.65
-605.68
-533.74
-450.26
-361.70
-273.33
-189.07
-111.90
-43.63
15.45
66.52
111.30
151.51
189.81
226.92
260.58
286.26
299.54
298.34
284.10
260.81
233.40
206.79
184.02
165.82
151.08
137.96
124.79
110.62
95.15
78.77
62.59
48.07
36.68
29.48
26.83
28.20
32.34
37.61
42.38
45.46
46.27
44.86
41.70
37.44
32.63
27.72
22.96
18.54
14.63
11.39
8.91
7.21
6.23
5.82
5.85
6.10
6.36
6.47
6.31
5.90
5.36
4.81
4.28
3.72
3.00
2.04
0.87
-0.34
-1.38
-2.12
-2.57
-2.98
-3.68
-5.01
-7.16
-10.05
-13.38
-16.69
-19.56
-21.84
-23.67
-25.47
-27.78
-31.04
-35.49
-40.97
-46.97
-52.60
-56.72
-58.19
-56.07
-50.06
-40.59
-28.82
-16.31
-4.62
5.15
12.50
17.51
20.63
22.37
23.18
23.39
23.25
22.99
22.79
22.74
22.83
22.94
22.94
22.79
22.50
22.23
22.16
22.42
23.06
24.02
25.14
26.24
27.16
27.80
28.10
27.97
27.30
26.00
24.02
21.41
18.36
15.09
11.74
8.29
4.60
0.49
-4.11
-9.08
-14.13
-18.85
-22.87
-25.95
-28.10
-29.52
-30.58
-31.73
-33.43
-36.05
-39.72
-44.28
-49.18
-53.49
-56.10
-56.03
-52.70
-46.14
-37.04
-26.52
-15.86
-6.13
1.95
8.08
12.37
15.15
16.89
18.09
19.12
20.13
21.09
21.85
22.27
22.28
21.92
21.30
20.55
19.79
19.15
18.74
18.69
19.08
19.87
20.90
21.90
22.59
22.75
22.38
21.57
20.49
19.26
17.88
16.23
14.24
11.94
9.51
7.19
5.14
3.33
1.56
-0.48
-3.05
-6.26
-10.00
-14.00
-17.87
-21.25
-23.92
-25.91
-27.54
-29.37
-31.99
-35.84
-40.89
-46.65
-52.12
-56.10
-57.40
-55.19
-49.25
-40.07
-28.72
-16.63
-5.13
4.81
12.73
18.65
22.87
25.75
27.61
28.67
29.09
28.95
28.32
27.19
25.62
23.71
21.70
19.91
18.68
18.29
18.75
19.84
21.16
22.24
22.70
22.39
21.39
19.97
18.40
16.93
15.72
14.87
14.40
14.27
14.26
13.99
12.93
10.72
7.29
3.03
-1.37
-5.20
-8.08
-10.14
-11.87
-13.84
-16.37
-19.36
-22.41
-25.09
-27.21
-28.93
-30.68
-32.92
-35.92
-39.60
-43.46
-46.67
-48.27
-47.40
-43.57
-36.89
-28.05
-18.17
-8.49
-0.04
6.53
11.03
13.70
14.99
15.43
15.52
15.54
15.62
15.68
15.64
15.41
14.98
14.40
13.70
12.85
11.83
10.75
9.90
9.77
10.85
13.38
17.18
21.64
25.95
29.37
31.48
32.22
31.83
30.68
29.09
27.29
25.43
23.59
21.84
20.21
18.71
17.32
16.03
14.78
13.49
11.95
9.93
7.25
3.89
0.05
-3.89
-7.54
-10.70
-13.44
-16.06
-18.90
-22.25
-26.13
-30.37
-34.58
-38.21
-40.62
-41.09
-39.03
-34.10
-26.45
-16.80
-6.30
3.77
12.32
18.72
22.80
24.76
25.05
24.15
22.61
20.90
19.41
18.32
17.57
16.95
16.24
15.36
14.37
13.48
12.85
12.54
12.47
12.52
12.57
12.61
12.62
12.56
12.35
11.86
11.10
10.14
9.09
8.04
6.93
5.63
4.01
2.09
-0.01
-2.15
-4.28
-6.43
-8.66
-10.96
-13.12
-14.80
-15.76
-15.93
-15.50
-14.93
-14.77
-15.50
-17.43
-20.54
-24.43
-28.36
-31.34
-32.41
-30.88
-26.58
-19.87
-11.52
-2.53
6.15
13.73
19.65
23.64
25.69
26.01
24.99
23.10
20.77
18.34
16.02
13.91
12.05
10.44
9.10
8.06
7.38
7.11
7.30
7.92
8.87
9.92
10.80
11.20
10.89
9.83
8.13
6.11
4.11
2.38
0.98
-0.23
-1.52
-3.15
-5.28
-7.89
-10.80
-13.70
-16.21
-18.06
-19.12
-19.53
-19.64
-19.90
-20.76
-22.47
-25.06
-28.25
-31.57
-34.35
-35.84
-35.32
-32.31
-26.79
-19.26
-10.67
-2.13
5.48
11.79
16.87
21.03
24.49
27.23
28.96
29.43
28.59
26.74
24.39
22.10
20.21
18.76
17.60
16.52
15.41
14.29
13.26
12.41
11.75
11.17
10.48
9.49
8.07
6.15
3.77
1.04
-1.89
-4.78
-7.35
-9.22
-10.09
-9.83
-8.59
-6.84
-5.24
-4.39
-4.59
-5.76
-7.52
-9.40
-11.13
-12.76
-14.59
-17.02
-20.22
-24.09
-28.14
-31.67
-33.94
-34.30
-32.39
-28.20
-22.12
-14.79
-7.03
0.40
6.87
11.93
15.38
17.23
17.68
17.13
16.08
15.02
14.25
13.80
13.46
12.89
11.87
10.36
8.55
6.78
5.35
4.49
4.27
4.60
5.27
5.98
6.38
6.25
5.51
4.29
2.85
1.45
0.24
-0.79
-1.69
-2.50
-3.23
-3.80
-4.28
-4.77
-5.53
-6.78
-8.56
-10.74
-13.00
-15.03
-16.66
-17.97
-19.24
-20.83
-23.02
-25.85
-29.12
-32.32
-34.78
-35.80
-34.82
-31.53
-26.03
-18.82
-10.67
-2.47
4.92
10.94
15.30
18.02
19.35
19.64
19.23
18.42
17.35
16.11
14.68
13.13
11.53
10.01
8.71
7.74
7.13
6.84
6.79
6.85
6.95
7.07
7.24
7.46
7.68
7.81
7.71
7.31
6.55
5.44
4.05
2.46
0.73
-1.01
-2.66
-4.18
-5.60
-7.07
-8.74
-10.60
-12.55
-14.33
-15.83
-17.11
-18.43
-20.10
-22.31
-24.99
-27.87
-30.49
-32.35
-32.97
-31.90
-28.86
-23.86
-17.22
-9.63
-1.94
5.03
10.72
14.87
17.50
18.77
18.93
18.25
17.01
15.48
13.82
12.14
10.51
8.95
7.61
6.66
6.29
6.58
7.43
8.54
9.57
10.20
10.32
9.98
9.40
8.71
8.00
7.21
6.23
5.03
3.67
2.28
1.02
-0.01
-0.88
-1.71
-2.61
-3.65
-4.79
-6.01
-7.26
-8.52
-9.77
-10.96
-12.09
-13.28
-14.76
-16.83
-19.65
-23.10
-26.65
-29.49
-30.71
-29.66
-26.07
-20.22
-12.80
-4.71
3.16
10.16
15.90
20.29
23.45
25.53
26.73
27.26
27.30
27.07
26.67
26.14
25.38
24.23
22.54
20.23
17.39
14.14
10.68
7.21
3.92
0.95
-1.61
-3.75
-5.55
-7.17
-8.78
-10.55
-12.54
-14.72
-16.92
-18.87
-20.26
-20.86
-20.56
-19.45
-17.83
-16.17
-14.93
-14.52
-15.07
-16.51
-18.52
-20.70
-22.66
-24.11
-24.96
-25.29
-25.38
-25.56
-26.20
-27.49
-29.35
-31.33
-32.72
-32.65
-30.48
-25.92
-19.22
-11.10
-2.59
5.31
11.83
16.60
19.64
21.33
22.10
22.35
22.27
21.86
21.07
19.85
18.39
16.98
15.93
15.37
15.26
15.30
15.16
14.71
14.01
13.36
13.07
13.27
13.78
14.24
14.26
13.69
12.63
11.39
10.24
9.29
8.39
7.26
5.70
3.69
1.46
-0.60
-2.12
-2.91
-3.05
-2.87
-2.78
-3.17
-4.19
-5.74
-7.56
-9.39
-11.09
-12.79
-14.75
-17.29
-20.52
-24.25
-27.99
-30.97
-32.38
-31.58
-28.36
-23.01
-16.21
-8.94
-2.09
3.71
8.22
11.47
13.68
15.05
15.71
15.79
15.37
14.65
13.83
13.14
12.73
12.62
12.70
12.78
12.68
12.31
11.73
11.11
10.64
10.42
10.46
10.61
10.65
10.38
9.67
8.54
7.14
5.67
4.32
3.20
2.31
1.52
0.72
-0.25
-1.45
-2.87
-4.40
-5.88
-7.13
-8.09
-8.81
-9.46
-10.29
-11.52
-13.28
-15.57
-18.34
-21.41
-24.55
-27.38
-29.38
-29.97
-28.69
-25.38
-20.23
-13.81
-6.79
0.18
6.58
12.05
16.29
19.12
20.50
20.59
19.73
18.34
16.78
15.24
13.71
12.16
10.61
9.28
8.43
8.26
8.74
9.62
10.53
11.16
11.37
11.21
10.80
10.23
9.52
8.66
7.63
6.50
5.35
4.27
3.24
2.18
1.03
-0.21
-1.49
-2.71
-3.89
-5.10
-6.56
-8.36
-10.48
-12.70
-14.68
-16.16
-17.13
-17.90
-18.95
-20.78
-23.65
-27.42
-31.58
-35.32
-37.82
-38.38
-36.62
-32.51
-26.44
-19.08
-11.26
-3.79
2.72
7.96
11.91
14.75
16.76
18.17
19.18
19.89
20.35
20.59
20.59
20.29
19.70
18.83
17.79
16.77
15.96
15.50
15.40
15.57
15.79
15.82
15.44
14.58
13.33
11.92
10.62
9.63
8.96
8.45
7.86
7.00
5.87
4.61
3.43
2.42
1.50
0.45
-0.93
-2.75
-4.86
-7.06
-9.14
-11.01
-12.76
-14.54
-16.54
-18.88
-21.65
-24.85
-28.43
-32.21
-35.80
-38.65
-40.10
-39.53
-36.58
-31.28
-24.07
-15.75
-7.24
0.61
7.15
12.08
15.34
17.16
17.82
17.66
17.04
16.26
15.60
15.22
15.18
15.33
15.44
15.28
14.78
14.12
13.62
13.60
14.18
15.17
16.18
16.86
17.02
16.75
16.31
15.96
15.77
15.59
15.17
14.27
12.82
10.91
8.74
6.57
4.60
2.99
1.79
0.94
0.21
-0.72
-2.10
-4.12
-6.70
-9.58
-12.42
-14.92
-17.04
-18.99
-21.11
-23.75
-27.12
-31.16
-35.49
-39.42
-42.13
-42.73
-40.64
-35.64
-28.02
-18.51
-8.08
2.22
11.50
19.10
24.63
28.00
29.39
29.14
27.74
25.71
23.46
21.29
19.36
17.74
16.45
15.52
14.94
14.63
14.52
14.50
14.54
14.62
14.76
14.95
15.09
15.05
14.72
14.11
13.31
12.44
11.58
10.66
9.60
8.33
6.94
5.60
4.51
3.73
3.14
2.50
1.56
0.24
-1.39
-3.10
-4.67
-5.99
-7.09
-8.10
-9.13
-10.26
-11.47
-12.82
-14.43
-16.48
-19.12
-22.25
-25.41
-27.79
-28.47
-26.75
-22.43
-15.97
-8.33
-0.63
6.18
11.56
15.42
17.91
19.31
19.85
19.72
19.09
18.20
17.29
16.54
15.96
15.46
14.92
14.27
13.57
12.97
12.53
12.22
11.85
11.19
10.08
8.56
6.83
5.13
3.57
2.19
0.88
-0.48
-1.95
-3.46
-4.93
-6.30
-7.61
-8.97
-10.43
-11.96
-13.34
-14.34
-14.85
-14.94
-14.89
-14.95
-15.25
-15.70
-16.07
-16.18
-16.03
-15.84
-15.92
-16.52
-17.66
-19.10
-20.27
-20.38
-18.52
-13.97
-6.48
3.54
15.10
26.86
37.59
46.61
53.80
59.54
64.25
68.25
71.56
74.12
75.98
77.44
79.08
81.56
85.42
90.84
97.52
104.73
111.61
117.56
122.55
127.21
132.59
139.72
149.04
160.18
172.06
183.37
193.18
201.31
208.42
215.66
224.15
234.36
245.84
257.04
265.66
269.16
265.47
253.58
233.73
207.13
175.27
139.22
99.18
54.67
5.07
-49.96
-110.21
-174.73
-241.56
-307.33
-367.28
-416.12
-449.52
-465.89
-467.33
-459.25
-448.35
-439.90
-436.08
-435.82
-436.64
-436.67
-435.59
-434.04
-431.73
-425.91
-411.42
-382.84
-337.64
-278.88
-215.46
-159.78
-123.13
-111.38
-123.08
-150.41
-182.77
-210.53
-227.65
-232.01
-224.16
-205.54
-177.46
-141.13
-98.50
-52.67
-7.56
33.23
67.74
96.28
121.36
146.93
177.06
214.61
260.10
311.03
362.30
407.61
441.44
460.98
467.09
463.70
456.14
449.17
445.61
445.94
448.82
452.04
453.16
449.93
440.28
422.59
396.03
360.96
319.08
273.00
225.61
179.22
135.05
93.09
52.35
11.38
-31.17
-76.38
-125.14
-178.13
-235.52
-296.52
-358.89
-418.85
-471.85
-513.51
-540.69
-551.96
-547.47
-528.45
-496.79
-455.25
-408.05
-361.01
-320.84
-293.15
-280.29
-280.04
-286.26
-291.36
-289.34
-277.92
-258.61
-235.23
-211.34
-188.59
-166.42
-143.28
-117.89
-89.92
-59.88
-28.88
1.37
28.13
47.79
56.98
54.35
42.02
25.57
12.26
8.28
16.70
37.29
68.16
107.98
156.97
215.59
281.92
349.80
409.83
452.94
474.98
478.85
473.02
466.81
465.31
466.84
464.31
449.74
418.90
373.68
320.76
268.18
221.39
181.51
145.82
109.96
70.38
25.51
-24.33
-78.19
-135.40
-195.49
-256.73
-314.54
-361.33
-388.98
-392.86
-375.14
-344.92
-314.25
-292.15
-279.98
-271.37
-256.82
-230.12
-192.49
-151.81
-117.81
-96.27
-86.20
-81.42
-74.97
-63.47
-48.39
-34.31
-25.17
-21.52
-20.21
-16.29
-5.96
11.49
33.48
55.87
75.16
90.11
101.68
111.79
121.46
129.68
133.78
130.95
120.16
103.21
84.25
68.09
58.09
54.80
56.15
58.71
59.41
56.78
51.16
44.09
37.44
32.65
30.43
30.73
32.95
36.04
38.67
39.44
37.09
30.84
20.71
7.56
-7.01
-20.97
-32.30
-39.32
-41.03
-37.28
-28.84
-17.33
-4.86
6.43
14.90
19.76
21.10
19.63
16.25
11.93
7.51
3.91
2.06
2.82
6.61
13.14
21.34
29.76
37.12
42.81
46.90
49.83
51.91
53.00
52.54
50.03
45.36
39.09
32.15
25.50
19.84
15.46
12.48
11.00
11.19
13.14
16.62
21.02
25.35
28.55
29.71
28.33
24.24
17.60
8.80
-1.66
-13.29
-25.64
-38.17
-50.13
-60.39
-67.54
-70.22
-67.55
-59.57
-47.31
-32.55
-17.32
-3.35
8.19
16.72
22.06
24.39
24.11
21.92
18.81
15.90
14.28
14.66
17.21
21.55
26.85
32.12
36.47
39.26
40.21
39.35
36.96
33.52
29.69
26.21
23.85
23.14
24.22
26.61
29.37
31.33
31.56
29.74
26.25
21.99
17.91
14.54
11.70
8.65
4.36
-1.91
-10.28
-20.16
-30.38
-39.64
-46.85
-51.46
-53.55
-53.61
-52.23
-49.84
-46.53
-42.12
-36.39
-29.24
-20.78
-11.41
-1.69
7.66
15.92
22.40
26.58
28.20
27.30
24.23
19.57
13.98
8.15
2.71
-1.86
-5.34
-7.78
-9.51
-10.95
-12.62
-15.24
-19.99
-28.25
-41.09
-58.33
-77.91
-96.09
-108.54
-111.72
-103.97
-85.60
-58.43
-25.12
11.11
46.24
75.23
92.32
92.06
71.00
29.18
-29.09
-95.81
-160.91
-214.75
-250.52
-265.93
-263.54
-249.36
-230.55
-212.83
-198.88
-188.13
-178.01
-165.45
-147.96
-123.96
-92.75
-54.45
-10.32
37.04
83.94
126.64
162.89
192.97
219.69
246.84
277.04
310.12
343.12
371.97
393.74
408.25
418.05
426.94
437.80
451.15
464.86
475.08
477.78
470.19
451.47
422.69
386.30
345.25
302.24
259.16
216.88
175.49
134.82
94.86
55.76
17.68
-19.67
-57.07
-95.63
-136.36
-179.90
-226.63
-276.92
-331.18
-389.39
-450.23
-510.44
-564.88
-607.52
-633.28
-639.60
-627.33
-600.22
-563.60
-522.82
-482.02
-443.81
-409.44
-379.11
-352.22
-327.49
-303.13
-277.28
-248.57
-216.53
-181.63
-145.01
-107.86
-70.89
-33.99
3.61
43.27
86.50
134.55
187.56
243.87
299.75
349.97
389.34
414.48
425.02
423.44
413.73
399.48
382.67
363.56
341.79
317.56
292.30
268.15
246.86
228.90
213.18
197.77
181.00
162.18
141.85
121.41
102.51
86.32
73.25
62.97
54.59
47.08
39.54
31.37
22.29
12.20
1.05
-11.19
-24.58
-39.04
-54.39
-70.32
-86.42
-102.09
-116.38
-127.97
-135.18
-136.39
-130.40
-116.91
-96.54
-70.61
-40.83
-9.05
22.73
52.44
78.04
97.91
111.37
118.71
120.82
118.43
111.79
100.94
86.51
70.34
55.27
44.13
38.25
36.77
37.01
35.96
31.79
24.58
15.84
7.39
0.21
-5.87
-11.65
-17.77
-24.15
-30.15
-35.00
-38.32
-40.20
-41.14
-41.70
-42.30
-43.13
-44.16
-45.33
-46.54
-47.79
-49.10
-50.47
-51.82
-52.85
-53.12
-52.14
-49.52
-45.21
-39.60
-33.47
-27.71
-23.05
-19.76
-17.61
-16.02
-14.40
-12.46
-10.37
-8.54
-7.39
-7.09
-7.40
-7.90
-8.14
-7.91
-7.23
-6.33
-5.45
-4.67
-3.99
-3.26
-2.37
-1.30
-0.20
0.67
1.05
0.78
-0.09
-1.32
-2.60
-3.66
-4.36
-4.74
-4.95
-5.16
-5.49
-6.01
-6.72
-7.55
-8.43
-9.31
-10.19
-11.14
-12.21
-13.45
-14.83
-16.27
-17.72
-19.22
-20.85
-22.61
-24.33
-25.61
-25.87
-24.63
-21.67
-17.18
-11.72
-6.07
-0.96
3.05
5.70
7.05
7.34
6.95
6.25
5.50
4.81
4.20
3.65
3.15
2.81
2.67
2.78
3.04
3.29
3.37
3.18
2.76
2.22
1.68
1.20
0.85
0.61
0.49
0.50
0.54
0.43
-0.06
-1.09
-2.62
-4.37
-5.94
-6.98
-7.39
-7.31
-7.10
-7.11
-7.52
-8.26
-9.06
-9.70
-10.04
-10.11
-10.02
-9.93
-9.93
-10.15
-10.76
-11.96
-13.84
-16.25
-18.76
-20.65
-21.25
-20.10
-17.20
-12.96
-8.07
-3.27
0.84
3.89
5.77
6.56
6.50
5.91
5.11
4.29
3.54
2.84
2.13
1.46
0.88
0.49
0.32
0.29
0.27
0.13
-0.12
-0.43
-0.65
-0.75
-0.76
-0.77
-0.90
-1.17
-1.50
-1.83
-2.15
-2.58
-3.31
-4.45
-5.96
-7.62
-9.14
-10.28
-11.03
-11.58
-12.21
-13.15
-14.40
-15.76
-17.00
-17.94
-18.59
-19.12
-19.65
-20.25
-20.87
-21.43
-21.88
-22.15
-22.14
-21.62
-20.33
-18.06
-14.87
-11.12
-7.31
-3.97
-1.38
0.48
1.81
2.81
3.60
4.11
4.24
3.98
3.47
2.95
2.71
2.91
3.62
4.76
6.16
7.59
8.74
9.39
9.37
8.78
7.87
6.97
6.40
6.27
6.50
6.87
7.22
7.42
7.50
7.41
7.04
6.12
4.40
1.84
-1.28
-4.44
-7.06
-8.75
-9.54
-9.78
-10.01
-10.65
-11.86
-13.57
-15.54
-17.59
-19.57
-21.34
-22.65
-23.08
-22.25
-19.90
-16.16
-11.48
-6.56
-2.01
1.77
4.72
6.98
8.70
9.97
10.73
10.89
10.41
9.33
7.87
6.28
4.84
3.76
3.08
2.79
2.79
2.97
3.25
3.53
3.73
3.78
3.62
3.24
2.69
2.04
1.37
0.75
0.23
-0.18
-0.46
-0.62
-0.74
-0.95
-1.42
-2.25
-3.42
-4.78
-6.08
-7.10
-7.74
-8.10
-8.41
-8.95
-9.92
-11.39
-13.30
-15.43
-17.47
-19.07
-19.89
-19.63
-18.17
-15.59
-12.19
-8.40
-4.66
-1.32
1.43
3.52
4.96
5.75
5.86
5.28
4.09
2.49
0.83
-0.50
-1.19
-1.09
-0.33
0.82
1.93
2.68
2.90
2.58
1.95
1.23
0.66
0.35
0.24
0.17
-0.02
-0.43
-1.08
-1.89
-2.75
-3.62
-4.45
-5.27
-6.03
-6.72
-7.34
-8.02
-8.97
-10.48
-12.72
-15.56
-18.63
-21.29
-22.96
-23.24
-22.13
-20.01
-17.48
-15.12
-13.25
-11.88
-10.74
-9.54
-8.10
-6.49
-4.94
-3.81
-3.29
-3.38
-3.89
-4.46
-4.81
-4.79
-4.39
-3.75
-3.02
-2.32
-1.65
-1.02
-0.40
0.16
0.56
0.73
0.71
0.62
0.69
1.12
1.94
3.07
4.23
5.16
5.65
5.64
5.30
4.94
4.86
5.25
6.08
7.05
7.74
7.68
6.57
4.37
1.39
-1.73
-4.23
-5.36
-4.66
-2.05
2.09
7.08
12.08
16.35
19.43
21.16
21.65
21.14
19.86
18.03
15.80
13.25
10.45
7.48
4.44
1.47
-1.32
-3.80
-5.97
-7.82
-9.40
-10.73
-11.79
-12.53
-12.95
-13.09
-13.10
-13.15
-13.37
-13.81
-14.39
-14.98
-15.46
-15.74
-15.86
-15.88
-15.93
-16.09
-16.44
-16.97
-17.65
-18.53
-19.71
-21.26
-23.15
-25.11
-26.64
-27.13
-26.06
-23.25
-18.95
-13.77
-8.51
-3.82
-0.09
2.63
4.52
5.86
6.89
7.72
8.34
8.70
8.73
8.48
8.10
7.83
7.87
8.32
9.07
9.84
10.36
10.45
10.13
9.58
8.99
8.47
8.00
7.53
7.03
6.58
6.28
6.20
6.29
6.33
6.08
5.38
4.22
2.75
1.20
-0.26
-1.57
-2.82
-4.26
-6.21
-8.99
-12.71
-17.26
-22.18
-26.72
-30.00
-31.22
-29.89
-26.03
-20.23
-13.48
-6.88
-1.33
2.74
5.41
7.09
8.25
9.21
10.07
10.71
10.98
10.84
10.39
9.86
9.47
9.41
9.72
10.32
11.05
11.71
12.20
12.54
12.83
13.19
13.64
14.05
14.19
13.86
12.97
11.59
9.91
8.06
6.17
4.25
2.27
0.25
-1.80
-3.77
-5.57
-7.10
-8.27
-9.04
-9.47
-9.67
-9.88
-10.30
-11.12
-12.45
-14.32
-16.71
-19.56
-22.69
-25.74
-28.10
-29.09
-28.08
-24.79
-19.45
-12.79
-5.82
0.46
5.36
8.66
10.54
11.42
11.71
11.67
11.43
11.02
10.49
9.97
9.63
9.63
10.06
10.80
11.67
12.50
13.16
13.69
14.21
14.73
15.20
15.38
15.06
14.12
12.67
11.00
9.39
8.00
6.74
5.40
3.77
1.88
-0.08
-1.80
-3.09
-3.99
-4.75
-5.67
-7.00
-8.73
-10.74
-12.87
-15.02
-17.26
-19.66
-22.30
-25.22
-28.39
-31.78
-35.24
-38.40
-40.56
-40.77
-38.11
-32.08
-22.98
-11.79
-0.03
10.83
19.73
26.28
30.64
33.29
34.75
35.39
35.43
34.96
34.09
32.97
31.84
30.97
30.53
30.56
30.84
31.06
30.91
30.24
29.12
27.81
26.55
25.44
24.40
23.19
21.65
19.80
17.92
16.40
15.54
15.41
15.78
16.23
16.35
15.91
14.94
13.69
12.50
11.62
11.17
11.06
11.13
11.21
11.21
11.07
10.80
10.42
9.88
9.07
7.80
5.90
3.23
-0.08
-3.67
-6.86
-8.90
-9.20
-7.59
-4.44
-0.48
3.44
6.77
9.30
11.20
12.75
14.08
15.07
15.40
14.77
13.11
10.75
8.27
6.36
5.43
5.42
5.67
5.20
3.19
-0.47
-5.00
-8.84
-10.26
-8.09
-2.08
7.13
18.35
30.17
40.97
48.86
51.72
47.86
36.94
20.79
3.27
-10.83
-17.54
-15.05
-4.23
12.25
31.19
50.03
67.16
81.65
92.82
100.06
103.04
102.03
97.98
91.94
84.50
75.29
63.07
46.35
24.17
-3.42
-35.11
-68.24
-99.07
-123.34
-137.47
-139.88
-131.91
-117.74
-103.03
-92.87
-90.00
-94.32
-103.77
-115.93
-129.31
-143.50
-158.17
-171.76
-181.15
-182.60
-173.64
-154.54
-128.54
-100.47
-74.71
-53.71
-37.61
-25.19
-15.32
-7.83
-3.36
-2.41
-4.35
-7.21
-8.45
-6.00
0.77
11.09
23.47
36.59
49.64
62.22
73.96
84.22
92.09
96.74
97.79
95.46
90.56
84.27
77.80
72.11
67.62
64.20
61.21
57.81
53.33
47.65
41.22
34.86
29.30
24.90
21.59
19.01
16.87
15.10
13.79
13.07
12.93
13.10
13.23
13.06
12.51
11.79
11.25
11.24
11.91
13.19
14.77
16.25
17.26
17.67
17.61
17.35
17.26
17.59
18.42
19.60
20.85
21.81
22.14
21.65
20.34
18.46
16.35
14.43
13.03
12.36
12.50
13.44
15.09
17.26
19.65
21.85
23.48
24.28
24.27
23.72
23.04
22.76
23.33
25.04
27.93
31.77
36.03
40.12
43.59
46.46
49.31
53.21
59.21
67.89
78.90
91.01
102.45
111.52
117.18
119.24
118.22
114.94
110.15
104.24
97.26
89.00
79.17
67.58
54.31
39.84
25.21
11.89
1.48
-4.87
-6.83
-5.07
-0.83
4.81
11.32
18.77
27.07
35.09
40.40
39.81
30.77
12.78
-11.98
-39.49
-65.56
-87.71
-106.08
-123.00
-141.54
-164.15
-192.10
-225.75
-264.86
-308.54
-354.39
-397.90
-432.72
-452.13
-451.34
-429.11
-388.09
-333.68
-272.06
-208.70
-148.12
-94.69
-53.33
-29.04
-24.92
-39.64
-66.26
-93.43
-109.12
-105.26
-80.99
-42.94
-2.27
30.36
48.85
53.53
49.79
44.75
43.87
49.19
59.51
71.98
83.86
93.53
100.51
104.88
106.63
105.41
100.85
93.10
83.22
73.18
65.28
61.28
61.74
65.72
71.22
76.05
78.69
78.75
76.98
74.59
72.65
71.60
71.25
71.03
70.39
69.12
67.46
66.10
66.08
68.61
74.67
84.61
97.48
110.87
121.20
124.82
119.40
105.13
85.08
64.33
48.31
40.79
42.65
51.68
63.62
73.70
77.94
73.74
59.86
36.46
5.42
-29.40
-62.39
-87.39
-99.80
-98.55
-86.71
-70.27
-55.51
-46.29
-42.85
-42.62
-42.34
-40.14
-36.42
-33.09
-32.04
-33.72
-36.96
-39.59
-39.60
-36.02
-29.29
-21.16
-14.13
-10.73
-12.65
-20.09
-31.45
-43.78
-53.98
-59.92
-61.21
-58.96
-54.85
-50.16
-45.11
-39.14
-31.67
-22.94
-14.19
-7.15
-3.09
-2.09
-2.99
-4.02
-3.73
-1.89
0.31
0.92
-1.75
-8.10
-16.86
-25.55
-31.54
-33.11
-30.05
-23.55
-15.43
-7.43
-0.61
4.73
8.76
11.80
14.05
15.53
16.15
15.96
15.18
14.23
13.58
13.54
14.07
14.82
15.24
14.89
13.66
11.88
10.14
8.97
8.55
8.71
9.06
9.24
9.19
9.01
8.84
8.66
8.22
7.19
5.41
3.05
0.58
-1.25
-1.80
-0.71
1.86
5.33
8.81
11.43
12.62
12.26
10.61
8.10
5.10
1.73
-2.05
-6.29
-10.83
-15.32
-19.40
-22.80
-25.51
-27.62
-29.11
-29.71
-28.95
-26.37
-21.86
-15.82
-9.14
-2.92
1.94
5.02
6.45
6.78
6.62
6.46
6.45
6.50
6.35
5.80
4.78
3.42
2.10
1.21
1.07
1.71
2.90
4.34
5.78
7.28
9.05
11.31
13.98
16.58
18.38
18.76
17.54
15.16
12.52
10.57
9.96
10.72
12.35
13.95
14.69
13.98
11.77
8.49
4.92
1.94
0.25
0.15
1.33
2.90
3.59
2.20
-1.95
-8.58
-16.52
-24.06
-29.60
-32.20
-31.75
-28.90
-24.71
-20.31
-16.72
-14.56
-14.00
-14.48
-14.86
-13.83
-10.49
-4.98
1.44
6.93
9.93
9.98
7.91
5.38
3.96
4.38
6.35
8.89
11.06
12.51
13.52
14.73
16.55
18.80
20.81
21.74
21.19
19.40
17.20
15.53
14.94
15.32
15.95
16.00
14.89
12.56
9.46
6.21
3.30
0.89
-1.07
-2.82
-4.55
-6.37
-8.34
-10.51
-12.94
-15.62
-18.41
-20.97
-22.83
-23.47
-22.52
-19.89
-15.86
-11.00
-6.04
-1.63
1.85
4.41
6.29
7.78
9.04
9.99
10.42
10.18
9.31
8.16
7.16
6.73
7.01
7.87
9.02
10.13
11.01
11.63
12.03
12.25
12.20
11.79
10.96
9.78
8.52
7.49
6.91
6.77
6.80
6.58
5.78
4.33
2.54
0.87
-0.21
-0.52
-0.25
0.14
0.07
-0.91
-3.05
-6.31
-10.41
-14.86
-19.03
-22.20
-23.80
-23.45
-21.16
-17.28
-12.41
-7.19
-2.23
2.06
5.45
7.89
9.43
10.24
10.55
10.64
10.79
11.19
11.95
13.02
14.18
15.15
15.69
15.68
15.19
14.45
13.69
13.11
12.74
12.55
12.40
12.11
11.53
10.53
9.04
7.16
5.10
3.11
1.41
0.03
-1.19
-2.53
-4.22
-6.31
-8.59
-10.67
-12.25
-13.23
-13.93
-14.98
-17.02
-20.41
-24.95
-29.85
-34.02
-36.39
-36.30
-33.64
-28.79
-22.49
-15.63
-9.07
-3.49
0.75
3.63
5.48
6.81
8.15
9.80
11.82
14.01
16.10
17.87
19.24
20.29
21.13
21.85
22.48
22.95
23.12
22.90
22.31
21.50
20.68
19.97
19.33
18.55
17.37
15.72
13.78
11.95
10.65
10.07
10.06
10.17
9.93
8.98
7.25
4.87
2.07
-0.91
-3.90
-6.77
-9.34
-11.53
-13.37
-15.09
-17.08
-19.73
-23.22
-27.38
-31.65
-35.26
-37.45
-37.65
-35.72
-31.91
-26.83
-21.27
-15.97
-11.50
-8.05
-5.54
-3.61
-1.85
0.06
2.24
4.65
7.12
9.44
11.49
13.22
14.70
16.06
17.43
18.87
20.25
21.34
21.90
21.76
21.00
19.91
18.87
18.18
17.92
17.93
17.98
17.81
17.27
16.35
15.16
13.84
12.56
11.46
10.57
9.88
9.25
8.55
7.70
6.72
5.70
4.76
3.96
3.21
2.34
1.05
-0.98
-4.03
-8.27
-13.64
-19.70
-25.72
-30.75
-33.92
-34.67
-32.86
-28.79
-23.01
-16.21
-9.03
-2.05
4.24
9.53
13.72
16.95
19.49
21.59
23.32
24.57
25.07
24.66
23.34
21.38
19.13
16.85
14.67
12.65
10.81
9.39
8.76
9.34
11.33
14.58
18.51
22.27
24.98
26.07
25.42
23.43
20.71
17.89
15.37
13.28
11.60
10.38
9.74
9.78
10.41
11.17
11.35
10.29
7.74
4.03
-0.04
-3.59
-6.05
-7.40
-8.08
-8.76
-9.99
-12.05
-14.90
-18.25
-21.62
-24.44
-26.13
-26.19
-24.45
-21.05
-16.55
-11.73
-7.38
-4.07
-2.00
-0.94
-0.41
0.06
0.72
1.52
2.18
2.49
2.47
2.46
2.84
3.85
5.32
6.77
7.69
7.81
7.31
6.64
6.22
6.20
6.42
6.49
6.16
5.35
4.22
3.00
1.82
0.74
-0.27
-1.17
-1.82
-2.06
-1.79
-1.13
-0.33
0.24
0.25
-0.42
-1.72
-3.44
-5.33
-7.17
-8.78
-10.10
-11.15
-12.08
-13.13
-14.54
-16.45
-18.78
-21.06
-22.64
-22.78
-21.05
-17.55
-12.94
-8.18
-4.22
-1.62
-0.33
0.20
0.67
1.66
3.32
5.47
7.70
9.69
11.35
12.71
13.84
14.63
14.82
14.09
12.40
10.04
7.64
5.96
5.56
6.57
8.63
11.08
13.17
14.37
14.56
13.98
13.09
12.33
11.87
11.63
11.39
10.92
10.20
9.36
8.55
7.78
6.85
5.43
3.27
0.45
-2.64
-5.39
-7.27
-8.06
-8.02
-7.74
-7.97
-9.29
-11.96
-15.79
-20.15
-24.18
-26.96
-27.79
-26.39
-22.96
-18.17
-12.86
-7.82
-3.58
-0.35
1.95
3.52
4.62
5.53
6.44
7.45
8.51
9.47
10.15
10.52
10.67
10.77
10.96
11.17
11.25
11.03
10.52
9.93
9.52
9.44
9.56
9.61
9.36
8.91
8.54
8.63
9.33
10.41
11.39
11.75
11.22
9.82
7.88
5.78
3.80
2.11
0.72
-0.45
-1.49
-2.52
-3.68
-5.04
-6.63
-8.46
-10.49
-12.67
-14.83
-16.66
-17.73
-17.65
-16.24
-13.73
-10.61
-7.46
-4.67
-2.24
0.07
2.51
5.13
7.57
9.24
9.59
8.35
5.71
2.31
-0.99
-3.38
-4.40
-4.12
-3.04
-1.85
-1.07
-0.87
-1.01
-1.07
-0.73
0.09
1.22
2.40
3.38
4.02
4.18
3.75
2.60
0.82
-1.27
-3.13
-4.31
-4.68
-4.53
-4.48
-5.08
-6.52
-8.47
-10.31
-11.45
-11.58
-10.90
-9.87
-9.00
-8.66
-8.98
-10.04
-11.89
-14.52
-17.81
-21.27
-24.14
-25.56
-24.96
-22.28
-17.99
-12.93
-7.94
-3.62
-0.22
2.28
4.02
5.20
5.99
6.57
7.02
7.41
7.69
7.86
7.92
7.99
8.21
8.71
9.47
10.39
11.33
12.16
12.79
13.15
13.17
12.84
12.24
11.56
11.03
10.82
10.94
11.20
11.30
10.99
10.16
8.88
7.37
5.78
4.21
2.62
0.92
-0.91
-2.76
-4.39
-5.57
-6.15
-6.24
-6.13
-6.27
-7.11
-8.93
-11.85
-15.72
-20.23
-24.87
-28.99
-31.87
-32.85
-31.60
-28.23
-23.34
-17.85
-12.74
-8.75
-6.13
-4.75
-4.17
-3.91
-3.59
-3.04
-2.26
-1.32
-0.33
0.63
1.47
2.15
2.64
2.97
3.23
3.57
4.11
4.90
5.89
6.99
8.09
9.08
9.86
10.38
10.59
10.48
10.13
9.63
9.08
8.54
7.99
7.37
6.64
5.84
5.02
4.25
3.46
2.57
1.47
0.15
-1.33
-2.90
-4.55
-6.33
-8.34
-10.62
-13.06
-15.45
-17.50
-18.97
-19.68
-19.61
-18.83
-17.49
-15.75
-13.73
-11.51
-9.14
-6.66
-4.16
-1.77
0.35
2.06
3.28
4.01
4.35
4.42
4.36
4.36
4.56
5.03
5.70
6.37
6.80
6.88
6.71
6.55
6.71
7.28
8.18
9.12
9.84
10.22
10.35
10.40
10.45
10.42
10.06
9.17
7.67
5.71
3.55
1.48
-0.29
-1.73
-2.94
-4.05
-5.21
-6.52
-8.09
-9.98
-12.18
-14.54
-16.76
-18.43
-19.17
-18.76
-17.24
-14.92
-12.20
-9.38
-6.64
-3.95
-1.26
1.38
3.80
5.77
7.07
7.64
7.51
6.77
5.53
3.97
2.34
0.99
0.28
0.42
1.32
2.58
3.65
4.06
3.70
2.83
1.96
1.57
1.87
2.70
3.60
4.09
3.83
2.83
1.36
-0.25
-1.76
-3.14
-4.50
-5.93
-7.41
-8.73
-9.64
-9.96
-9.69
-9.03
-8.29
-7.76
-7.72
-8.44
-10.07
-12.66
-15.89
-19.17
-21.69
-22.74
-22.00
-19.65
-16.30
-12.65
-9.26
-6.39
-4.03
-2.08
-0.47
0.90
2.06
3.07
3.95
4.64
4.97
4.82
4.19
3.21
2.16
1.33
0.83
0.61
0.41
0.02
-0.68
-1.63
-2.58
-3.30
-3.66
-3.69
-3.59
-3.57
-3.79
-4.22
-4.77
-5.38
-6.14
-7.17
-8.60
-10.36
-12.31
-14.23
-15.94
-17.27
-17.99
-17.61
-15.54
-11.36
-5.12
2.40
9.77
15.46
18.40
18.35
15.92
12.24
8.37
5.04
2.51
0.76
-0.36
-1.01
-1.37
-1.69
-2.27
-3.34
-4.89
-6.71
-8.42
-9.78
-10.64
-10.83
-10.01
-7.60
-3.13
3.30
10.77
17.73
22.71
25.06
25.34
25.05
25.70
27.98
31.41
34.71
36.66
36.80
35.58
33.92
32.58
31.71
30.99
30.00
28.60
26.97
25.42
24.03
22.59
20.72
18.14
14.84
11.04
6.88
2.28
-3.11
-9.65
-17.31
-25.46
-32.92
-38.46
-41.17
-40.84
-37.98
-33.60
-28.73
-24.21
-20.39
-17.19
-14.33
-11.52
-8.68
-6.02
-3.92
-2.74
-2.56
-3.06
-3.63
-3.64
-2.81
-1.31
0.28
1.36
1.67
1.44
1.28
1.85
3.52
6.20
9.43
12.59
15.10
16.60
16.91
16.07
14.31
12.03
9.77
8.05
7.19
7.13
7.43
7.42
6.53
4.52
1.49
-2.18
-6.13
-10.23
-14.62
-19.64
-25.54
-32.35
-39.75
-47.12
-53.70
-58.62
-61.01
-60.05
-55.26
-46.70
-35.27
-22.63
-10.82
-1.64
4.00
6.31
6.45
5.92
5.94
7.04
9.09
11.70
14.62
17.92
21.84
26.48
31.47
35.95
38.85
39.39
37.51
33.88
29.66
25.95
23.37
21.89
21.03
20.23
19.20
17.96
16.79
15.85
15.06
14.15
12.76
10.78
8.38
6.02
4.16
3.07
2.69
2.70
2.66
2.26
1.39
0.05
-1.80
-4.32
-7.84
-12.65
-18.73
-25.63
-32.45
-38.02
-41.24
-41.34
-38.14
-32.05
-24.06
-15.43
-7.40
-0.90
3.69
6.51
8.06
8.98
9.73
10.51
11.30
12.07
12.89
13.97
15.48
17.34
19.19
20.42
20.60
19.68
18.09
16.54
15.64
15.58
16.13
16.70
16.81
16.27
15.22
14.02
12.97
12.14
11.38
10.42
9.06
7.24
5.04
2.70
0.46
-1.48
-2.98
-4.10
-5.01
-5.94
-7.16
-8.86
-11.16
-14.07
-17.45
-21.04
-24.37
-26.86
-27.83
-26.79
-23.60
-18.57
-12.37
-5.86
0.18
5.30
9.32
12.35
14.53
16.02
16.91
17.28
17.25
16.95
16.52
16.08
15.70
15.42
15.29
15.35
15.63
16.07
16.57
16.92
16.95
16.57
15.82
14.83
13.76
12.67
11.54
10.33
8.97
7.51
5.98
4.44
2.86
1.16
-0.71
-2.76
-4.86
-6.86
-8.69
-10.46
-12.48
-15.07
-18.34
-22.04
-25.50
-27.84
-28.32
-26.53
-22.62
-17.17
-10.97
-4.78
0.84
5.57
9.30
12.05
13.96
15.24
16.13
16.80
17.32
17.63
17.59
17.14
16.31
15.24
14.12
13.09
12.22
11.49
10.94
10.61
10.54
10.66
10.84
10.87
10.61
10.07
9.39
8.74
8.21
7.69
6.95
5.72
3.87
1.40
-1.52
-4.68
-7.90
-11.03
-14.05
-16.95
-19.81
-22.67
-25.55
-28.38
-30.93
-32.78
-33.39
-32.23
-29.05
-23.96
-17.56
-10.73
-4.40
0.78
4.57
7.12
8.79
9.94
10.80
11.45
11.93
12.31
12.77
13.42
14.33
15.32
16.15
16.60
16.61
16.34
16.11
16.24
16.86
17.90
19.01
19.77
19.81
18.92
17.15
14.72
12.05
9.54
7.53
6.16
5.29
4.57
3.49
1.70
-0.92
-4.11
-7.41
-10.26
-12.35
-13.67
-14.57
-15.62
-17.34
-20.02
-23.58
-27.62
-31.50
-34.52
-36.05
-35.67
-33.25
-28.95
-23.21
-16.70
-10.13
-4.18
0.67
4.22
6.56
8.01
8.99
9.87
10.81
11.81
12.74
13.46
13.95
14.28
14.57
14.91
15.25
15.50
15.57
15.48
15.40
15.51
15.86
16.32
16.63
16.51
15.84
14.77
13.55
12.41
11.47
10.65
9.78
8.73
7.48
6.04
4.49
2.84
1.07
-0.83
-2.76
-4.62
-6.34
-7.99
-9.79
-12.07
-15.11
-18.97
-23.43
-27.90
-31.59
-33.70
-33.64
-31.22
-26.73
-20.91
-14.68
-8.89
-4.10
-0.45
2.24
4.31
6.06
7.63
8.95
9.93
10.46
10.61
10.56
10.53
10.64
10.83
10.94
10.72
10.14
9.36
8.75
8.69
9.34
10.54
11.86
12.82
13.10
12.72
11.92
11.06
10.31
9.68
8.99
8.01
6.59
4.69
2.39
-0.12
-2.60
-4.72
-6.22
-6.97
-7.08
-6.92
-7.01
-7.87
-9.81
-12.89
-16.80
-20.98
-24.64
-26.92
-27.12
-25.00
-20.83
-15.42
-9.83
-5.01
-1.48
0.75
2.10
3.07
4.07
5.30
6.79
8.48
10.24
11.83
12.90
13.13
12.30
10.50
8.12
5.77
3.99
3.07
2.92
3.20
3.57
3.91
4.34
5.07
6.13
7.28
8.10
8.17
7.36
5.85
4.03
2.28
0.74
-0.66
-2.09
-3.66
-5.33
-7.00
-8.63
-10.36
-12.38
-14.88
-17.82
-20.96
-23.82
-25.92
-26.81
-26.24
-24.16
-20.72
-16.29
-11.29
-6.23
-1.55
2.34
5.20
6.94
7.67
7.71
7.44
7.25
7.43
8.06
9.06
10.14
10.99
11.32
11.01
10.15
9.06
8.10
7.60
7.71
8.33
9.18
9.91
10.26
10.10
9.51
8.63
7.66
6.72
5.89
5.16
4.44
3.54
2.28
0.49
-1.84
-4.55
-7.29
-9.63
-11.25
-12.11
-12.50
-12.97
-14.10
-16.27
-19.38
-22.95
-26.20
-28.33
-28.76
-27.33
-24.27
-20.12
-15.48
-10.87
-6.58
-2.72
0.70
3.74
6.39
8.54
10.08
10.94
11.13
10.79
10.13
9.39
8.71
8.13
7.59
7.04
6.45
5.92
5.62
5.69
6.14
6.78
7.36
7.59
7.38
6.83
6.18
5.66
5.38
5.25
5.05
4.60
3.81
2.73
1.47
0.19
-1.00
-2.06
-3.00
-3.87
-4.72
-5.59
-6.54
-7.68
-9.13
-11.01
-13.34
-15.94
-18.44
-20.35
-21.22
-20.82
-19.23
-16.75
-13.78
-10.63
-7.46
-4.36
-1.37
1.37
3.69
5.39
6.34
6.51
5.96
4.93
3.76
2.86
2.57
3.06
4.25
5.87
7.56
9.02
10.07
10.74
11.13
11.37
11.56
11.72
11.83
11.82
11.60
11.05
10.05
8.51
6.51
4.24
2.03
0.21
-0.93
-1.33
-1.23
-1.07
-1.41
-2.73
-5.25
-8.91
-13.31
-17.85
-21.84
-24.67
-25.92
-25.44
-23.47
-20.44
-16.95
-13.47
-10.28
-7.37
-4.58
-1.77
1.03
3.58
5.48
6.35
6.15
5.12
3.81
2.82
2.58
3.16
4.27
5.39
6.12
6.25
5.95
5.61
5.56
5.97
6.71
7.54
8.19
8.60
8.84
9.04
9.24
9.32
9.05
8.27
6.96
5.29
3.52
1.84
0.29
-1.22
-2.84
-4.65
-6.70
-9.00
-11.60
-14.52
-17.77
-21.18
-24.41
-26.97
-28.32
-28.09
-26.09
-22.51
-17.85
-12.82
-8.15
-4.38
-1.73
-0.04
1.05
1.93
2.80
3.64
4.27
4.55
4.50
4.37
4.50
5.08
6.11
7.31
8.27
8.70
8.57
8.09
7.62
7.50
7.82
8.49
9.24
9.86
10.18
10.17
9.83
9.21
8.37
7.38
6.37
5.41
4.51
3.56
2.42
1.01
-0.62
-2.27
-3.68
-4.70
-5.38
-6.01
-7.02
-8.80
-11.52
-15.03
-18.88
-22.41
-24.93
-25.90
-25.08
-22.56
-18.74
-14.18
-9.44
-4.97
-0.98
2.45
5.33
7.70
9.50
10.75
11.48
11.79
11.88
11.86
11.78
11.61
11.35
11.02
10.74
10.62
10.69
10.86
10.99
10.92
10.63
10.19
9.73
9.34
8.98
8.50
7.74
6.61
5.16
3.61
2.16
1.00
0.12
-0.58
-1.32
-2.26
-3.48
-4.96
-6.60
-8.35
-10.19
-12.20
-14.41
-16.79
-19.15
-21.24
-22.78
-23.58
-23.54
-22.67
-21.02
-18.66
-15.68
-12.20
-8.39
-4.50
-0.77
2.56
5.31
7.36
8.66
9.25
9.27
8.94
8.54
8.35
8.54
9.10
9.86
10.49
10.67
10.20
9.19
8.00
7.12
6.99
7.81
9.42
11.40
13.20
14.42
14.90
14.73
14.19
13.56
12.99
12.45
11.83
10.94
9.70
8.14
6.43
4.81
3.46
2.45
1.68
0.87
-0.29
-2.11
-4.78
-8.29
-12.43
-16.90
-21.28
-25.12
-27.98
-29.51
-29.54
-28.09
-25.44
-22.06
-18.47
-15.12
-12.25
-9.88
-7.83
-5.88
-3.94
-2.06
-0.44
0.72
1.41
1.79
2.16
2.81
3.83
5.14
6.48
7.61
8.33
8.61
8.49
8.14
7.75
7.53
7.58
7.89
8.34
8.70
8.80
8.54
7.95
7.18
6.42
5.85
5.55
5.51
5.59
5.53
5.07
4.01
2.34
0.23
-1.99
-3.98
-5.50
-6.56
-7.37
-8.33
-9.80
-11.94
-14.47
-16.74
-17.90
-17.33
-14.96
-11.33
-7.39
-4.03
-1.68
-0.17
1.04
2.50
4.49
6.87
9.23
11.15
12.38
12.86
12.68
12.02
11.01
9.82
8.61
7.50
6.64
6.13
6.02
6.29
6.84
7.54
8.22
8.76
9.06
9.06
8.80
8.35
7.88
7.59
7.57
7.78
7.93
7.66
6.74
5.18
3.25
1.31
-0.36
-1.76
-2.96
-4.04
-4.95
-5.60
-6.10
-6.82
-8.31
-10.94
-14.51
-18.22
-20.92
-21.66
-20.12
-16.77
-12.54
-8.38
-4.85
-2.06
0.25
2.34
4.30
6.03
7.29
7.88
7.75
7.09
6.26
5.75
5.88
6.74
8.08
9.41
10.20
10.13
9.19
7.74
6.28
5.28
4.99
5.38
6.19
7.08
7.79
8.23
8.51
8.75
8.99
9.04
8.57
7.30
5.17
2.46
-0.34
-2.74
-4.45
-5.52
-6.21
-6.85
-7.73
-8.95
-10.57
-12.56
-14.88
-17.37
-19.80
-21.80
-23.02
-23.14
-21.99
-19.60
-16.22
-12.26
-8.23
-4.58
-1.56
0.79
2.64
4.20
5.61
6.84
7.75
8.23
8.30
8.14
7.98
7.97
8.10
8.25
8.29
8.21
8.12
8.15
8.39
8.78
9.16
9.40
9.43
9.28
8.96
8.48
7.81
6.97
6.04
5.15
4.40
3.74
3.01
1.95
0.37
-1.75
-4.24
-6.76
-8.92
-10.39
-11.09
-11.16
-11.04
-11.28
-12.39
-14.60
-17.71
-21.05
-23.75
-25.02
-24.41
-22.02
-18.28
-13.79
-9.10
-4.53
-0.26
3.63
7.03
9.84
12.00
13.59
14.74
15.56
16.00
16.00
15.54
14.82
14.26
14.27
15.00
16.12
17.00
16.98
15.82
13.82
11.63
9.91
8.87
8.29
7.63
6.48
4.84
3.07
1.67
0.95
0.88
1.15
1.39
1.39
1.14
0.74
0.23
-0.39
-1.20
-2.21
-3.35
-4.50
-5.62
-6.82
-8.31
-10.31
-12.86
-15.75
-18.60
-20.87
-22.09
-21.92
-20.24
-17.19
-13.15
-8.70
-4.42
-0.81
1.89
3.68
4.78
5.43
5.79
5.92
5.73
5.24
4.50
3.74
3.20
3.10
3.47
4.14
4.81
5.17
5.09
4.60
3.90
3.19
2.51
1.75
0.75
-0.52
-1.87
-2.99
-3.58
-3.58
-3.17
-2.65
-2.27
-2.08
-2.02
-2.03
-2.10
-2.34
-2.86
-3.74
-5.03
-6.79
-9.09
-11.89
-15.02
-18.06
-20.45
-21.65
-21.40
-19.77
-17.05
-13.62
-9.76
-5.63
-1.37
2.79
6.55
9.54
11.56
12.55
12.62
12.00
10.95
9.72
8.61
7.86
7.65
8.03
8.82
9.73
10.43
10.72
10.62
10.25
9.78
9.30
8.79
8.20
7.50
6.72
5.90
5.09
4.32
3.65
3.17
2.96
2.97
2.99
2.63
1.52
-0.50
-3.23
-6.19
-8.81
-10.67
-11.66
-11.95
-11.94
-12.09
-12.78
-14.28
-16.61
-19.53
-22.47
-24.67
-25.36
-24.11
-20.97
-16.53
-11.64
-7.14
-3.49
-0.78
1.25
2.92
4.48
5.98
7.36
8.52
9.43
10.10
10.55
10.80
10.88
10.88
10.88
11.02
11.32
11.68
11.97
12.00
11.70
11.15
10.47
9.83
9.29
8.84
8.44
8.13
7.95
7.97
8.09
8.03
7.50
6.27
4.40
2.21
0.12
-1.57
-2.76
-3.59
-4.28
-4.97
-5.74
-6.65
-7.82
-9.41
-11.52
-14.10
-16.85
-19.37
-21.22
-22.11
-21.93
-20.75
-18.69
-15.92
-12.63
-9.00
-5.23
-1.52
1.94
4.96
7.40
9.19
10.34
10.95
11.13
11.03
10.78
10.46
10.17
9.97
9.90
9.95
10.07
10.20
10.29
10.32
10.32
10.35
10.40
10.43
10.34
9.95
9.12
7.82
6.07
4.04
1.95
-0.01
-1.75
-3.29
-4.75
-6.21
-7.68
-9.09
-10.29
-11.21
-11.92
-12.64
-13.64
-15.11
-17.05
-19.18
-21.08
-22.27
-22.38
-21.23
-18.82
-15.34
-11.12
-6.56
-2.10
1.89
5.22
7.88
10.04
11.85
13.36
14.43
14.92
14.75
14.13
13.36
12.76
12.42
12.26
12.12
11.92
11.81
11.93
12.31
12.74
12.84
12.34
11.25
9.94
8.83
8.17
7.87
7.51
6.70
5.29
3.48
1.62
-0.03
-1.44
-2.78
-4.28
-6.00
-7.82
-9.56
-11.10
-12.48
-13.90
-15.59
-17.72
-20.29
-23.15
-26.04
-28.59
-30.37
-30.99
-30.17
-27.81
-24.10
-19.46
-14.42
-9.51
-5.15
-1.62
1.01
2.81
4.02
4.88
5.63
6.40
7.17
7.84
8.28
8.45
8.38
8.16
7.84
7.43
6.93
6.34
5.75
5.34
5.33
5.89
7.04
8.60
10.18
11.35
11.77
11.37
10.35
9.09
7.97
7.22
6.83
6.64
6.40
5.91
5.10
4.05
2.88
1.76
0.78
-0.05
-0.83
-1.69
-2.75
-4.13
-5.89
-8.14
-10.94
-14.27
-17.82
-21.04
-23.19
-23.67
-22.23
-19.16
-15.09
-10.81
-6.91
-3.65
-0.99
1.23
3.16
4.87
6.28
7.32
7.93
8.16
8.19
8.30
8.76
9.67
10.87
12.01
12.71
12.85
12.55
12.27
12.41
13.18
14.43
15.77
16.81
17.31
17.37
17.21
17.06
17.01
16.92
16.58
15.79
14.51
12.81
10.83
8.61
6.17
3.48
0.58
-2.27
-4.77
-6.71
-8.15
-9.44
-11.13
-13.56
-16.66
-19.91
-22.54
-23.88
-23.67
-22.11
-19.66
-16.79
-13.71
-10.42
-6.81
-2.92
1.00
4.44
6.91
8.06
7.89
6.71
5.07
3.60
2.78
2.86
3.78
5.21
6.73
7.97
8.71
8.96
8.93
8.86
8.96
9.31
9.77
10.09
9.99
9.35
8.22
6.86
5.59
4.64
4.00
3.44
2.63
1.34
-0.47
-2.60
-4.71
-6.49
-7.78
-8.66
-9.43
-10.50
-12.18
-14.62
-17.73
-21.20
-24.53
-27.20
-28.71
-28.71
-27.02
-23.73
-19.25
-14.17
-9.16
-4.76
-1.19
1.64
3.92
5.85
7.41
8.51
9.09
9.27
9.31
9.44
9.78
10.22
10.60
10.83
10.94
11.13
11.56
12.28
13.18
14.07
14.78
15.12
14.96
14.17
12.74
10.83
8.76
6.89
5.42
4.27
3.13
1.69
-0.18
-2.30
-4.36
-6.05
-7.22
-7.95
-8.37
-8.60
-8.71
-8.87
-9.37
-10.58
-12.82
-16.09
-20.08
-24.18
-27.70
-30.07
-30.91
-30.04
-27.46
-23.37
-18.17
-12.45
-6.87
-1.92
2.18
5.52
8.36
10.90
13.16
15.00
16.26
16.90
17.06
16.98
16.84
16.69
16.48
16.09
15.48
14.74
14.10
13.81
13.99
14.54
15.21
15.57
15.33
14.42
13.02
11.52
10.26
9.35
8.62
7.75
6.46
4.74
2.82
1.07
-0.26
-1.16
-1.86
-2.68
-3.79
-5.18
-6.67
-8.08
-9.40
-10.81
-12.55
-14.81
-17.57
-20.53
-23.19
-24.95
-25.32
-24.06
-21.21
-17.13
-12.37
-7.52
-3.07
0.68
3.66
5.97
7.74
9.08
10.04
10.64
10.96
11.08
11.14
11.26
11.49
11.81
12.09
12.17
11.89
11.24
10.33
9.45
8.91
9.00
9.79
11.10
12.47
13.41
13.56
12.90
11.71
10.45
9.53
9.03
8.77
8.41
7.64
6.37
4.71
2.87
0.98
-0.91
-2.79
-4.63
-6.32
-7.77
-9.00
-10.21
-11.64
-13.50
-15.73
-18.00
-19.84
-20.74
-20.40
-18.82
-16.20
-12.89
-9.26
-5.54
-1.93
1.42
4.34
6.66
8.21
8.94
8.98
8.55
7.95
7.46
7.20
7.18
7.26
7.32
7.28
7.15
7.02
7.01
7.24
7.67
8.23
8.66
8.75
8.39
7.56
6.44
5.35
4.46
3.93
3.70
3.52
3.18
2.50
1.46
0.19
-1.16
-2.48
-3.80
-5.27
-7.08
-9.37
-12.18
-15.45
-19.01
-22.54
-25.62
-27.69
-28.20
-26.80
-23.54
-18.90
-13.63
-8.52
-4.13
-0.67
1.91
3.79
5.05
5.77
6.00
5.93
5.83
6.00
6.60
7.59
8.78
9.91
10.78
11.32
11.51
11.41
11.07
10.54
9.84
9.00
8.04
6.98
5.86
4.80
3.96
3.47
3.41
3.68
4.09
4.40
4.40
3.92
2.90
1.32
-0.71
-2.99
-5.20
-6.95
-8.00
-8.33
-8.31
-8.56
-9.68
-12.00
-15.40
-19.32
-22.93
-25.44
-26.32
-25.42
-22.93
-19.30
-15.07
-10.72
-6.65
-3.09
-0.15
2.20
3.99
5.30
6.22
6.86
7.38
7.88
8.44
9.04
9.61
10.06
10.34
10.42
10.24
9.76
8.91
7.72
6.38
5.24
4.64
4.75
5.45
6.36
6.96
6.87
5.98
4.44
2.59
0.75
-0.89
-2.32
-3.62
-4.94
-6.31
-7.69
-8.97
-10.03
-10.90
-11.75
-12.89
-14.66
-17.33
-21.00
-25.47
-30.19
-34.26
-36.66
-36.62
-34.01
-29.52
-24.47
-20.24
-17.77
-17.14
-17.67
-18.20
-17.49
-14.41
-8.09
1.82
14.71
28.88
41.75
50.59
53.63
50.75
43.65
34.99
27.27
21.83
18.66
16.78
15.07
12.85
10.16
7.55
5.71
5.18
6.13
8.44
11.78
15.86
20.54
25.91
32.09
38.97
46.06
52.38
56.76
58.26
56.66
52.58
47.28
41.95
37.11
32.25
26.21
18.02
7.70
-3.44
-13.34
-20.22
-23.41
-23.63
-22.30
-20.72
-19.34
-17.82
-15.59
-12.65
-9.87
-8.67
-10.21
-14.65
-20.95
-27.32
-32.08
-34.39
-34.52
-33.51
-32.51
-32.14
-32.21
-32.06
-30.95
-28.66
-25.54
-22.33
-19.66
-17.72
-16.21
-14.52
-12.20
-9.15
-5.80
-2.91
-1.18
-1.01
-2.27
-4.37
-6.49
-7.92
-8.32
-7.87
-7.04
-6.43
-6.42
-7.01
-7.87
-8.44
-8.26
-7.06
-4.92
-2.15
0.78
3.43
5.46
6.79
7.53
7.95
8.40
9.12
10.11
11.05
11.36
10.44
7.96
4.13
-0.33
-4.41
-7.17
-8.18
-7.63
-6.15
-4.48
-3.14
-2.27
-1.75
-1.42
-1.33
-1.71
-2.76
-4.54
-6.77
-8.96
-10.63
-11.53
-11.78
-11.73
-11.81
-12.31
-13.26
-14.47
-15.69
-16.71
-17.35
-17.46
-16.85
-15.33
-12.75
-9.17
-4.88
-0.33
4.04
7.88
11.08
13.69
15.79
17.37
18.34
18.59
18.09
17.05
15.72
14.41
13.27
12.27
11.28
10.18
9.00
7.84
6.88
6.12
5.34
4.11
1.98
-1.24
-5.34
-9.67
-13.35
-15.61
-16.03
-14.74
-12.29
-9.52
-7.23
-6.06
-6.32
-7.96
-10.53
-13.26
-15.26
-15.76
-14.43
-11.47
-7.53
-3.42
0.30
3.41
6.12
8.75
11.48
14.19
16.55
18.14
18.75
18.45
17.58
16.56
15.78
15.44
15.55
15.97
16.48
16.84
16.77
16.03
14.44
11.99
8.95
5.83
3.27
1.74
1.35
1.75
2.20
1.96
0.50
-2.15
-5.50
-8.82
-11.50
-13.20
-14.12
-14.72
-15.54
-17.01
-19.17
-21.72
-24.05
-25.49
-25.42
-23.47
-19.62
-14.16
-7.71
-1.05
4.99
9.74
12.90
14.55
15.02
14.66
13.64
11.94
9.48
6.45
3.34
0.86
-0.37
-0.15
1.14
2.81
4.12
4.64
4.42
3.81
3.29
3.24
3.78
4.78
5.93
6.87
7.30
7.11
6.41
5.43
4.40
3.45
2.53
1.56
0.49
-0.59
-1.51
-2.09
-2.30
-2.39
-2.80
-4.02
-6.37
-9.83
-14.01
-18.20
-21.55
-23.31
-23.09
-20.89
-17.17
-12.67
-8.12
-4.11
-0.88
1.61
3.64
5.52
7.42
9.39
11.27
12.84
13.96
14.53
14.61
14.31
13.73
12.96
12.03
11.01
10.01
9.20
8.68
8.53
8.74
9.27
10.05
11.04
12.17
13.30
14.18
14.49
14.01
12.59
10.38
7.68
4.96
2.65
1.09
0.42
0.49
0.89
1.14
0.77
-0.42
-2.31
-4.65
-7.13
-9.64
-12.21
-14.91
-17.60
-19.86
-21.08
-20.69
-18.52
-14.78
-10.08
-5.11
-0.40
3.77
7.32
10.25
12.49
13.90
14.41
14.01
12.91
11.43
9.97
8.91
8.54
8.98
10.10
11.59
12.98
13.88
14.08
13.68
13.03
12.50
12.35
12.59
12.98
13.21
13.06
12.50
11.69
10.87
10.23
9.78
9.39
8.82
7.82
6.30
4.29
1.95
-0.44
-2.71
-4.71
-6.45
-7.94
-9.27
-10.59
-12.10
-14.03
-16.51
-19.45
-22.39
-24.62
-25.40
-24.20
-20.99
-16.22
-10.71
-5.29
-0.61
2.99
5.51
7.14
8.15
8.80
9.26
9.61
9.86
9.96
9.90
9.63
9.18
8.56
7.83
7.13
6.57
6.28
6.30
6.60
7.11
7.72
8.34
8.84
9.09
8.98
8.45
7.55
6.47
5.45
4.65
4.07
3.53
2.76
1.59
0.09
-1.50
-2.81
-3.62
-3.88
-3.79
-3.69
-3.90
-4.62
-5.89
-7.62
-9.60
-11.61
-13.35
-14.49
-14.76
-14.01
-12.32
-9.97
-7.28
-4.52
-1.76
1.07
4.02
7.04
9.83
11.98
13.14
13.18
12.27
10.79
9.18
7.79
6.76
6.10
5.74
5.65
5.78
6.17
6.75
7.37
7.83
7.91
7.52
6.75
5.85
5.14
4.78
4.74
4.74
4.45
3.68
2.44
0.97
-0.36
-1.29
-1.76
-1.87
-1.89
-2.06
-2.57
-3.54
-5.02
-6.96
-9.16
-11.34
-13.08
-14.00
-13.80
-12.44
-10.07
-7.00
-3.63
-0.33
2.60
5.00
6.80
8.04
8.74
8.91
8.53
7.57
6.08
4.19
2.15
0.20
-1.43
-2.59
-3.29
-3.60
-3.65
-3.57
-3.50
-3.46
-3.47
-3.46
-3.37
-3.18
-2.91
-2.65
-2.53
-2.60
-2.87
-3.26
-3.61
-3.81
-3.81
-3.59
-3.27
-2.98
-2.83
-2.85
-3.03
-3.29
-3.54
-3.75
-3.98
-4.43
-5.30
-6.72
-8.62
-10.59
-12.00
-12.21
-10.94
-8.29
-4.92
-1.61
1.00
2.68
3.64
4.22
4.71
5.15
5.37
5.17
4.53
3.62
2.70
2.05
1.74
1.77
2.02
2.37
2.69
2.86
2.83
2.60
2.27
1.98
1.83
1.81
1.81
1.67
1.34
0.88
0.39
-0.03
-0.41
-0.84
-1.49
-2.42
-3.58
-4.77
-5.82
-6.58
-7.03
-7.29
-7.46
-7.71
-8.19
-9.01
-10.26
-11.91
-13.85
-15.75
-17.21
-17.82
-17.31
-15.68
-13.12
-9.99
-6.75
-3.76
-1.30
0.53
1.77
2.58
3.16
3.70
4.25
4.76
5.08
5.07
4.72
4.11
3.41
2.75
2.20
1.75
1.40
1.15
1.05
1.14
1.42
1.88
2.50
3.33
4.44
5.82
7.34
8.64
9.28
8.92
7.46
5.15
2.45
-0.13
-2.31
-4.06
-5.53
-6.83
-7.87
-8.40
-8.20
-7.37
-6.38
-5.91
-6.41
-7.92
-9.91
-11.68
-12.65
-12.66
-11.91
-10.75
-9.38
-7.78
-5.86
-3.64
-1.32
0.78
2.42
3.52
4.18
4.50
4.52
4.25
3.71
3.05
2.56
2.49
2.94
3.75
4.61
5.24
5.48
5.39
5.20
5.16
5.38
5.77
6.05
5.96
5.33
4.30
3.16
2.29
1.86
1.80
1.79
1.39
0.40
-1.06
-2.61
-3.74
-4.21
-4.10
-3.83
-3.91
-4.74
-6.40
-8.71
-11.32
-13.84
-15.90
-17.15
-17.31
-16.19
-13.87
-10.77
-7.54
-4.88
-3.27
-2.78
-3.04
-3.50
-3.64
-3.19
-2.21
-0.95
0.34
1.49
2.47
3.35
4.14
4.76
5.12
5.09
4.70
4.11
3.58
3.36
3.58
4.18
4.96
5.69
6.18
6.36
6.26
5.98
5.62
5.24
4.82
4.33
3.74
3.03
2.23
1.37
0.51
-0.24
-0.76
-0.97
-0.87
-0.61
-0.52
-0.89
-1.91
-3.47
-5.13
-6.27
-6.33
-5.08
-2.80
-0.24
1.61
1.91
0.30
-2.95
-7.02
-10.93
-13.84
-15.30
-15.36
-14.39
-12.95
-11.62
-10.88
-10.97
-11.81
-12.92
-13.61
-13.24
-11.54
-8.82
-5.86
-3.59
-2.58
-2.84
-3.94
-5.25
-6.43
-7.46
-8.61
-10.03
-11.55
-12.61
-12.49
-10.77
-7.53
-3.50
0.21
2.62
3.30
2.60
1.34
0.32
-0.22
-0.75
-2.15
-5.11
-9.58
-14.71
-19.21
-22.10
-23.06
-22.53
-21.23
-19.71
-17.97
-15.78
-12.92
-9.55
-6.17
-3.26
-0.97
0.98
3.11
5.78
8.89
11.87
14.02
14.87
14.49
13.39
12.30
11.71
11.76
12.15
12.44
12.27
11.53
10.35
8.98
7.60
6.33
5.21
4.29
3.63
3.30
3.31
3.57
3.89
4.03
3.85
3.33
2.60
1.88
1.31
0.89
0.52
0.07
-0.55
-1.24
-1.84
-2.23
-2.48
-2.84
-3.70
-5.39
-8.09
-11.60
-15.42
-18.86
-21.23
-22.03
-21.13
-18.72
-15.25
-11.34
-7.52
-4.18
-1.53
0.45
1.87
2.86
3.56
4.01
4.26
4.33
4.30
4.26
4.30
4.44
4.54
4.44
4.04
3.42
2.83
2.58
2.92
3.83
5.10
6.39
7.38
7.93
8.03
7.84
7.53
7.21
6.94
6.70
6.40
5.93
5.15
4.02
2.56
0.93
-0.71
-2.21
-3.46
-4.44
-5.13
-5.66
-6.18
-6.97
-8.31
-10.28
-12.68
-14.99
-16.54
-16.72
-15.32
-12.53
-8.96
-5.30
-2.16
0.20
1.82
2.98
3.98
5.01
6.10
7.11
7.89
8.31
8.39
8.23
7.95
7.63
7.28
6.89
6.48
6.12
5.93
6.03
6.41
6.97
7.52
7.84
7.79
7.34
6.62
5.82
5.19
4.88
4.91
5.19
5.48
5.51
5.06
4.00
2.36
0.29
-1.94
-4.02
-5.71
-6.95
-7.81
-8.57
-9.55
-11.03
-13.14
-15.81
-18.78
-21.69
-24.16
-25.82
-26.38
-25.64
-23.50
-20.05
-15.56
-10.52
-5.50
-1.06
2.48
5.12
7.12
8.84
10.46
11.88
12.80
12.93
12.25
11.07
9.93
9.24
9.12
9.35
9.63
9.79
9.92
10.30
11.12
12.31
13.60
14.63
15.19
15.31
15.11
14.71
14.10
13.24
12.14
11.00
10.06
9.52
9.31
9.11
8.49
7.09
4.82
1.87
-1.36
-4.46
-7.13
-9.21
-10.70
-11.71
-12.48
-13.31
-14.59
-16.64
-19.63
-23.35
-27.18
-30.24
-31.61
-30.63
-27.22
-21.81
-15.26
-8.47
-2.21
3.08
7.26
10.40
12.63
14.18
15.29
16.23
17.23
18.40
19.67
20.81
21.55
21.69
21.21
20.29
19.25
18.48
18.30
18.85
20.02
21.51
22.89
23.74
23.86
23.26
22.19
20.99
19.91
19.00
18.15
17.17
15.94
14.50
12.95
11.41
9.86
8.16
6.14
3.73
1.07
-1.62
-4.06
-6.13
-7.82
-9.31
-10.76
-12.33
-14.14
-16.31
-18.98
-22.19
-25.76
-29.19
-31.71
-32.53
-31.08
-27.31
-21.74
-15.27
-8.84
-3.17
1.48
5.20
8.28
10.95
13.24
14.97
15.90
15.89
15.12
14.02
13.15
12.89
13.31
14.10
14.76
14.89
14.40
13.59
12.94
12.86
13.49
14.68
16.00
16.99
17.29
16.72
15.39
13.58
11.69
10.02
8.68
7.56
6.40
4.97
3.20
1.29
-0.46
-1.76
-2.56
-3.01
-3.36
-3.87
-4.62
-5.65
-6.94
-8.56
-10.65
-13.32
-16.52
-19.99
-23.28
-25.80
-26.98
-26.38
-23.85
-19.56
-14.03
-8.01
-2.27
2.58
6.31
8.99
10.91
12.35
13.48
14.26
14.64
14.62
14.34
14.01
13.84
13.92
14.25
14.77
15.38
16.01
16.59
17.03
17.18
16.96
16.31
15.27
13.97
12.59
11.27
10.15
9.31
8.74
8.39
8.13
7.79
7.19
6.26
5.02
3.61
2.20
0.93
-0.18
-1.18
-2.21
-3.46
-5.03
-7.02
-9.40
-12.16
-15.24
-18.58
-22.07
-25.46
-28.37
-30.31
-30.75
-29.27
-25.84
-20.80
-14.85
-8.76
-3.20
1.52
5.38
8.56
11.15
13.14
14.35
14.66
14.09
12.89
11.51
10.45
10.00
10.25
11.00
11.88
12.57
12.92
13.02
13.11
13.43
14.07
14.89
15.57
15.77
15.26
14.04
12.39
10.69
9.28
8.32
7.74
7.27
6.62
5.57
4.07
2.18
0.00
-2.36
-4.76
-6.97
-8.72
-9.84
-10.43
-10.90
-11.88
-13.91
-17.19
-21.42
-25.88
-29.65
-31.93
-32.18
-30.23
-26.27
-20.85
-14.67
-8.53
-3.10
1.23
4.39
6.55
8.01
8.97
9.51
9.60
9.22
8.44
7.47
6.62
6.13
6.08
6.36
6.78
7.18
7.54
7.99
8.74
9.89
11.36
12.83
13.91
14.23
13.68
12.36
10.59
8.70
6.92
5.33
3.85
2.33
0.68
-1.14
-3.08
-5.07
-7.06
-8.99
-10.83
-12.59
-14.38
-16.38
-18.77
-21.64
-24.77
-27.66
-29.56
-29.74
-27.78
-23.74
-18.21
-12.12
-6.39
-1.68
1.79
4.20
5.97
7.50
9.04
10.59
11.96
12.93
13.35
13.22
12.68
11.92
11.11
10.41
9.90
9.65
9.77
10.33
11.36
12.73
14.11
15.05
15.13
14.12
12.15
9.70
7.34
5.60
4.63
4.23
3.90
3.10
1.53
-0.79
-3.54
-6.26
-8.58
-10.34
-11.62
-12.65
-13.76
-15.24
-17.30
-20.02
-23.27
-26.67
-29.60
-31.35
-31.30
-29.12
-24.92
-19.22
-12.83
-6.58
-1.07
3.41
6.92
9.68
11.91
13.73
15.13
16.04
16.49
16.62
16.70
17.00
17.69
18.76
20.03
21.22
22.07
22.47
22.50
22.37
22.42
22.88
23.78
24.93
25.97
26.52
26.30
25.15
23.00
19.76
15.31
9.56
2.61
-5.13
-12.98
-20.22
-26.28
-30.90
-34.15
-36.24
-37.43
-37.93
-37.97
-37.90
-38.16
-39.12
-40.82
-42.79
-44.10
-43.81
-41.29
-36.58
-30.30
-23.36
-16.61
-10.55
-5.36
-1.01
2.59
5.50
7.79
9.61
11.14
12.57
14.01
15.47
16.93
18.34
19.66
20.77
21.50
21.68
21.20
20.17
18.84
17.54
16.54
15.98
15.83
15.98
16.30
16.61
16.77
16.65
16.13
15.13
13.60
11.52
8.95
5.98
2.78
-0.40
-3.35
-5.87
-7.91
-9.56
-11.07
-12.71
-14.80
-17.48
-20.63
-23.80
-26.28
-27.30
-26.34
-23.38
-18.94
-13.86
-9.01
-4.91
-1.70
0.75
2.60
3.89
4.52
4.43
3.71
2.66
1.66
1.04
0.96
1.37
2.10
2.94
3.69
4.26
4.58
4.64
4.47
4.20
3.93
3.80
3.92
4.32
4.96
5.70
6.35
6.67
6.53
5.83
4.58
2.89
0.91
-1.11
-2.98
-4.59
-6.12
-7.93
-10.42
-13.74
-17.56
-21.07
-23.26
-23.34
-21.03
-16.78
-11.45
-5.99
-1.08
2.99
6.23
8.81
10.87
12.51
13.74
14.63
15.23
15.57
15.66
15.52
15.18
14.75
14.38
14.22
14.34
14.67
15.04
15.26
15.14
14.59
13.58
12.11
10.29
8.25
6.17
4.25
2.57
1.07
-0.42
-2.11
-4.13
-6.39
-8.66
-10.62
-12.02
-12.72
-12.86
-12.72
-12.80
-13.65
-15.71
-19.11
-23.57
-28.34
-32.36
-34.62
-34.44
-31.75
-27.09
-21.37
-15.59
-10.47
-6.31
-3.04
-0.36
2.03
4.20
6.09
7.49
8.31
8.62
8.68
8.79
9.14
9.71
10.35
10.87
11.11
11.08
10.88
10.67
10.59
10.78
11.35
12.29
13.45
14.53
15.20
15.23
14.62
13.60
12.52
11.67
11.03
10.32
9.18
7.44
5.23
2.94
1.02
-0.33
-1.25
-2.15
-3.49
-5.57
-8.45
-11.94
-15.77
-19.65
-23.22
-26.06
-27.62
-27.32
-24.88
-20.44
-14.71
-8.74
-3.59
0.09
2.28
3.50
4.53
5.98
8.06
10.52
12.82
14.50
15.30
15.34
14.93
14.46
14.12
13.92
13.68
13.20
12.40
11.41
10.46
9.75
9.40
9.38
9.61
10.02
10.56
11.10
11.36
11.00
9.71
7.46
4.51
1.41
-1.28
-3.24
-4.41
-5.01
-5.30
-5.47
-5.55
-5.48
-5.22
-4.84
-4.58
-4.74
-5.60
-7.35
-10.01
-13.40
-17.17
-20.89
-24.00
-25.94
-26.25
-24.72
-21.55
-17.30
-12.81
-8.89
-6.10
-4.55
-3.92
-3.58
-2.91
-1.52
0.56
2.96
5.18
6.85
7.90
8.58
9.27
10.28
11.66
13.25
14.81
16.22
17.46
18.61
19.70
20.58
21.05
20.96
20.29
19.23
18.05
16.94
15.97
15.07
14.04
12.70
10.96
8.86
6.54
4.22
2.02
0.00
-1.90
-3.81
-5.82
-7.98
-10.27
-12.71
-15.36
-18.30
-21.55
-24.89
-27.87
-29.86
-30.33
-29.01
-26.01
-21.80
-17.01
-12.21
-7.77
-3.87
-0.50
2.32
4.57
6.15
7.00
7.13
6.73
6.14
5.74
5.85
6.57
7.73
8.92
9.73
9.93
9.56
8.98
8.63
8.82
9.56
10.61
11.59
12.18
12.21
11.70
10.74
9.47
8.02
6.51
5.09
3.85
2.82
1.93
0.98
-0.19
-1.76
-3.80
-6.34
-9.31
-12.57
-15.74
-18.32
-19.74
-19.58
-17.75
-14.55
-10.64
-6.72
-3.37
-0.81
1.03
2.43
3.59
4.55
5.18
5.33
4.95
4.23
3.50
3.08
3.15
3.59
4.17
4.66
4.98
5.25
5.63
6.25
7.03
7.79
8.28
8.37
7.99
7.22
6.16
4.90
3.52
2.12
0.79
-0.37
-1.26
-1.87
-2.24
-2.51
-2.87
-3.48
-4.47
-5.87
-7.62
-9.62
-11.65
-13.45
-14.66
-14.88
-13.80
-11.33
-7.77
-3.70
0.13
3.16
5.17
6.32
7.05
7.76
8.58
9.38
9.87
9.80
9.09
7.87
6.35
4.73
3.16
1.77
0.74
0.24
0.41
1.18
2.31
3.51
4.51
5.18
5.57
5.75
5.74
5.51
4.94
3.98
2.65
1.16
-0.22
-1.21
-1.65
-1.63
-1.41
-1.41
-2.02
-3.46
-5.66
-8.26
-10.77
-12.62
-13.36
-12.73
-10.72
-7.65
-4.04
-0.58
2.13
3.71
4.17
3.82
3.12
2.44
1.91
1.41
0.72
-0.32
-1.67
-3.10
-4.31
-5.07
-5.31
-5.11
-4.65
-4.05
-3.34
-2.52
-1.61
-0.81
-0.34
-0.44
-1.17
-2.33
-3.60
-4.63
-5.22
-5.36
-5.26
-5.17
-5.33
-5.91
-6.92
-8.24
-9.67
-10.98
-11.93
-12.42
-12.49
-12.25
-11.89
-11.63
-11.67
-12.22
-13.48
-15.52
-18.16
-20.84
-22.75
-23.07
-21.25
-17.30
-11.74
-5.48
0.54
5.62
9.38
11.79
13.03
13.36
13.05
12.30
11.30
10.28
9.51
9.23
9.56
10.48
11.70
12.83
13.51
13.61
13.31
12.97
12.97
13.46
14.30
15.16
15.65
15.53
14.78
13.43
11.58
9.30
6.70
4.00
1.56
-0.24
-1.21
-1.49
-1.50
-1.77
-2.63
-4.04
-5.61
-6.88
-7.54
-7.67
-7.68
-8.12
-9.44
-11.83
-15.12
-18.87
-22.38
-24.86
-25.66
-24.43
-21.24
-16.63
-11.34
-6.11
-1.41
2.52
5.61
7.86
9.22
9.70
9.39
8.60
7.70
7.04
6.84
7.13
7.77
8.57
9.35
9.91
10.08
9.74
8.89
7.71
6.59
5.89
5.86
6.41
7.15
7.57
7.34
6.46
5.23
4.05
3.18
2.57
2.02
1.29
0.35
-0.63
-1.38
-1.68
-1.54
-1.14
-0.73
-0.52
-0.64
-1.13
-2.07
-3.61
-5.88
-8.94
-12.61
-16.36
-19.47
-21.20
-21.06
-19.02
-15.57
-11.47
-7.53
-4.30
-1.99
-0.51
0.41
1.07
1.62
2.11
2.50
2.67
2.56
2.13
1.44
0.63
-0.13
-0.67
-0.89
-0.75
-0.26
0.56
1.67
3.06
4.60
6.16
7.53
8.54
9.04
8.91
8.13
6.70
4.72
2.40
0.11
-1.75
-2.81
-2.89
-2.11
-0.83
0.48
1.41
1.79
1.69
1.24
0.47
-0.72
-2.58
-5.24
-8.53
-12.02
-15.10
-17.23
-18.06
-17.51
-15.64
-12.68
-8.93
-4.78
-0.71
2.82
5.53
7.36
8.44
9.03
9.29
9.30
9.05
8.55
7.91
7.32
6.97
6.95
7.24
7.66
8.02
8.16
8.05
7.76
7.37
7.00
6.68
6.44
6.31
6.30
6.35
6.31
5.95
5.06
3.58
1.68
-0.30
-2.04
-3.38
-4.45
-5.53
-6.84
-8.40
-9.98
-11.28
-12.02
-12.13
-11.72
-11.02
-10.37
-10.12
-10.57
-11.91
-14.12
-16.85
-19.52
-21.41
-21.88
-20.61
-17.72
-13.69
-9.20
-4.89
-1.19
1.82
4.30
6.52
8.65
10.64
12.24
13.20
13.42
13.06
12.53
12.22
12.37
12.83
13.18
12.83
11.32
8.58
5.04
1.57
-0.78
-1.10
0.96
5.08
10.17
14.74
17.24
16.62
12.60
5.92
-1.85
-8.71
-12.87
-13.30
-10.22
-4.95
0.54
4.51
6.06
5.36
3.34
1.07
-0.71
-1.79
-2.36
-2.71
-3.06
-3.65
-4.73
-6.64
-9.58
-13.44
-17.65
-21.33
-23.64
-24.09
-22.75
-20.11
-16.83
-13.49
-10.44
-7.86
-5.75
-4.06
-2.67
-1.43
-0.23
0.97
2.11
3.13
3.98
4.72
5.48
6.28
6.97
7.26
6.94
6.08
5.11
4.67
5.25
6.88
9.11
11.21
12.55
12.87
12.28
11.11
9.61
7.85
5.76
3.30
0.65
-1.80
-3.60
-4.42
-4.25
-3.36
-2.26
-1.50
-1.55
-2.65
-4.87
-8.09
-11.98
-16.08
-19.85
-22.75
-24.42
-24.73
-23.82
-21.99
-19.55
-16.69
-13.49
-9.88
-5.87
-1.60
2.64
6.45
9.47
11.48
12.47
12.58
12.09
11.25
10.28
9.31
8.41
7.67
7.19
7.11
7.50
8.40
9.72
11.25
12.71
13.83
14.36
14.20
13.36
11.96
10.14
8.03
5.66
3.04
0.17
-2.78
-5.53
-7.68
-8.92
-9.14
-8.50
-7.49
-6.73
-6.87
-8.29
-11.07
-14.92
-19.22
-23.25
-26.31
-27.91
-27.80
-25.99
-22.71
-18.34
-13.41
-8.47
-4.05
-0.51
2.08
3.85
5.01
5.70
5.87
5.47
4.57
3.46
2.62
2.48
3.16
4.39
5.75
6.80
7.42
7.80
8.25
9.01
10.06
11.18
12.06
12.51
12.53
12.25
11.84
11.41
10.97
10.47
9.94
9.42
9.00
8.74
8.56
8.33
7.87
7.08
5.97
4.70
3.40
2.16
0.87
-0.69
-2.85
-5.84
-9.67
-14.09
-18.59
-22.47
-25.07
-25.95
-24.96
-22.32
-18.48
-14.02
-9.54
-5.58
-2.51
-0.52
0.47
0.73
0.66
0.62
0.81
1.16
1.47
1.52
1.27
0.87
0.64
0.91
1.81
3.28
5.10
6.96
8.65
10.03
11.11
11.95
12.55
12.92
13.03
12.90
12.67
12.50
12.56
12.88
13.31
13.63
13.61
13.17
12.32
11.19
9.86
8.37
6.70
4.89
3.01
1.14
-0.75
-2.75
-5.08
-7.89
-11.21
-14.87
-18.53
-21.75
-24.01
-24.83
-23.87
-21.06
-16.69
-11.50
-6.42
-2.27
0.49
1.98
2.68
3.17
3.79
4.55
5.18
5.42
5.27
4.96
4.89
5.30
6.18
7.23
8.09
8.49
8.44
8.17
7.97
8.00
8.21
8.39
8.33
7.98
7.49
7.08
6.97
7.16
7.52
7.76
7.63
7.00
5.86
4.30
2.45
0.44
-1.62
-3.61
-5.39
-6.84
-7.90
-8.64
-9.27
-10.09
-11.37
-13.28
-15.69
-18.28
-20.60
-22.19
-22.77
-22.22
-20.55
-17.92
-14.54
-10.65
-6.62
-2.78
0.58
3.31
5.48
7.23
8.72
9.97
10.92
11.45
11.54
11.26
10.83
10.46
10.28
10.33
10.53
10.82
11.15
11.57
12.18
13.03
14.08
15.17
16.05
16.50
16.32
15.46
14.00
12.12
10.07
8.12
6.51
5.36
4.64
4.16
3.60
2.73
1.49
0.06
-1.25
-2.18
-2.76
-3.34
-4.43
-6.50
-9.70
-13.82
-18.35
-22.61
-25.96
-27.79
-27.71
-25.62
-21.75
-16.79
-11.60
-7.04
-3.66
-1.63
-0.73
-0.63
-1.00
-1.55
-2.02
-2.09
-1.53
-0.34
1.15
2.37
2.76
2.15
0.84
-0.47
-1.02
-0.36
1.52
4.21
7.12
9.73
11.76
13.17
14.05
14.55
14.78
14.81
14.71
14.55
14.42
14.44
14.65
15.05
15.53
15.94
16.08
15.78
14.94
13.52
11.45
8.60
4.80
-0.05
-5.80
-11.95
-17.63
-21.85
-23.80
-23.08
-19.90
-14.90
-8.97
-2.98
2.42
6.85
10.11
12.23
13.39
13.89
14.10
14.33
14.66
14.92
14.74
13.76
11.79
8.99
5.82
2.83
0.46
-1.23
-2.49
-3.71
-5.15
-6.60
-7.57
-7.42
-5.83
-3.02
0.28
3.21
5.09
5.68
5.22
4.10
2.75
1.46
0.47
-0.03
0.11
0.84
1.88
2.69
2.74
1.70
-0.44
-3.51
-7.39
-12.05
-17.54
-23.68
-29.84
-34.99
-37.94
-37.83
-34.50
-28.56
-21.20
-13.68
-6.92
-1.33
3.13
6.70
9.58
11.79
13.28
14.08
14.41
14.65
15.15
15.99
16.90
17.30
16.63
14.54
11.18
7.09
3.08
-0.02
-1.61
-1.50
0.07
2.48
4.91
6.63
7.29
6.95
6.09
5.28
4.91
5.03
5.41
5.72
5.73
5.45
4.98
4.41
3.68
2.57
0.87
-1.46
-4.25
-7.20
-10.05
-12.78
-15.58
-18.76
-22.40
-26.21
-29.47
-31.31
-31.02
-28.33
-23.56
-17.52
-11.22
-5.59
-1.21
1.84
3.95
5.76
7.87
10.45
13.23
15.57
16.92
17.06
16.22
14.96
13.76
12.81
11.99
11.07
9.98
8.93
8.37
8.61
9.67
11.22
12.68
13.54
13.62
13.09
12.40
12.02
12.19
12.82
13.52
13.84
13.43
12.24
10.43
8.22
5.82
3.34
0.84
-1.61
-3.93
-6.10
-8.16
-10.25
-12.54
-15.03
-17.54
-19.62
-20.68
-20.24
-18.03
-14.25
-9.40
-4.20
0.65
4.72
7.88
10.24
11.98
13.18
13.76
13.60
12.66
11.15
9.41
7.81
6.51
5.45
4.41
3.19
1.67
-0.20
-2.46
-5.19
-8.35
-11.53
-13.95
-14.61
-12.79
-8.50
-2.63
3.39
8.12
10.87
11.85
11.91
11.98
12.53
13.36
13.79
13.08
10.69
6.60
1.09
-5.32
-12.10
-18.71
-24.63
-29.28
-32.10
-32.62
-30.66
-26.46
-20.67
-14.18
-7.84
-2.26
2.30
5.73
7.95
8.81
8.23
6.43
4.14
2.40
2.20
3.96
7.27
10.94
13.57
14.13
12.49
9.43
6.25
4.12
3.52
4.09
4.85
4.84
3.59
1.35
-1.05
-2.83
-3.65
-3.85
-4.16
-5.21
-7.07
-9.18
-10.72
-11.07
-10.25
-8.96
-8.22
-8.89
-11.23
-14.87
-18.94
-22.59
-25.16
-26.48
-26.63
-25.83
-24.31
-22.16
-19.43
-16.14
-12.40
-8.44
-4.58
-1.15
1.63
3.72
5.28
6.55
7.72
8.82
9.70
10.13
10.00
9.39
8.56
7.85
7.54
7.77
8.56
9.81
11.32
12.81
13.97
14.53
14.42
13.79
12.95
12.19
11.60
11.06
10.27
9.01
7.21
4.99
2.55
0.02
-2.49
-4.90
-7.01
-8.56
-9.30
-9.20
-8.54
-7.93
-8.00
-9.11
-11.14
-13.44
-15.13
-15.33
-13.54
-9.77
-4.49
1.51
7.35
12.23
15.59
17.13
16.90
15.27
12.85
10.35
8.35
7.16
6.71
6.71
6.73
6.44
5.66
4.34
2.61
0.66
-1.26
-2.86
-3.88
-4.12
-3.52
-2.23
-0.57
1.00
2.05
2.22
1.40
-0.31
-2.62
-5.19
-7.79
-10.37
-13.08
-16.06
-19.32
-22.65
-25.64
-27.93
-29.30
-29.81
-29.66
-29.11
-28.27
-27.01
-25.07
-22.16
-18.16
-13.26
-7.91
-2.66
2.04
5.93
8.96
11.21
12.73
13.55
13.64
13.09
12.11
11.04
10.23
9.89
10.04
10.53
11.24
12.08
13.11
14.38
15.94
17.72
19.62
21.47
23.09
24.20
24.47
23.63
21.55
18.45
14.85
11.38
8.54
6.50
5.01
3.67
2.13
0.37
-1.40
-2.81
-3.66
-4.03
-4.23
-4.68
-5.73
-7.46
-9.70
-12.13
-14.39
-16.14
-17.14
-17.26
-16.45
-14.79
-12.44
-9.70
-6.93
-4.48
-2.53
-1.09
0.08
1.36
3.11
5.53
8.57
11.90
15.05
17.51
18.91
19.17
18.47
17.18
15.72
14.37
13.26
12.42
11.87
11.65
11.76
12.06
12.20
11.74
10.36
8.06
5.20
2.39
0.19
-1.16
-1.84
-2.26
-2.85
-3.80
-5.02
-6.26
-7.30
-8.12
-8.86
-9.72
-10.85
-12.30
-14.06
-16.13
-18.56
-21.40
-24.61
-27.93
-30.92
-32.98
-33.57
-32.36
-29.40
-25.08
-20.04
-15.00
-10.51
-6.85
-3.99
-1.66
0.40
2.31
3.89
4.83
4.77
3.65
1.80
-0.08
-1.23
-1.19
0.02
1.96
4.00
5.77
7.30
8.97
11.23
14.24
17.72
21.09
23.69
25.12
25.28
24.31
22.45
19.88
16.81
13.44
10.12
7.19
4.93
3.46
2.67
2.34
2.17
1.96
1.62
1.18
0.69
0.18
-0.42
-1.33
-2.90
-5.43
-9.02
-13.45
-18.08
-22.10
-24.72
-25.48
-24.37
-21.78
-18.27
-14.35
-10.33
-6.35
-2.53
0.94
3.81
5.88
7.14
7.80
8.18
8.53
8.89
9.13
9.02
8.49
7.64
6.76
6.14
5.98
6.28
6.90
7.70
8.54
9.37
10.15
10.85
11.41
11.76
11.79
11.43
10.73
9.83
8.98
8.42
8.25
8.35
8.38
7.99
6.96
5.39
3.58
1.91
0.58
-0.48
-1.52
-2.79
-4.37
-6.20
-8.20
-10.41
-12.95
-15.94
-19.25
-22.41
-24.68
-25.39
-24.15
-21.12
-16.91
-12.34
-8.14
-4.74
-2.19
-0.27
1.28
2.66
3.87
4.77
5.18
5.04
4.47
3.78
3.32
3.35
3.90
4.78
5.65
6.26
6.51
6.55
6.70
7.24
8.29
9.70
11.11
12.11
12.40
11.93
10.91
9.69
8.58
7.81
7.41
7.36
7.54
7.85
8.14
8.21
7.85
6.86
5.27
3.30
1.33
-0.26
-1.25
-1.65
-1.74
-1.90
-2.47
-3.67
-5.55
-8.02
-10.92
-14.00
-16.91
-19.24
-20.51
-20.36
-18.62
-15.51
-11.55
-7.40
-3.65
-0.60
1.78
3.69
5.31
6.66
7.58
7.82
7.26
6.02
4.39
2.79
1.54
0.78
0.46
0.37
0.34
0.34
0.44
0.85
1.71
3.02
4.64
6.25
7.54
8.23
8.18
7.40
6.04
4.35
2.70
1.44
0.87
1.04
1.74
2.48
2.75
2.22
0.90
-0.82
-2.43
-3.54
-4.04
-4.12
-4.10
-4.26
-4.68
-5.37
-6.30
-7.49
-8.95
-10.60
-12.09
-12.92
-12.55
-10.71
-7.54
-3.58
0.36
3.58
5.69
6.73
7.10
7.26
7.57
7.99
8.25
7.94
6.81
4.94
2.73
0.73
-0.59
-1.07
-0.91
-0.49
-0.21
-0.24
-0.44
-0.60
-0.50
-0.18
0.16
0.18
-0.32
-1.30
-2.47
-3.41
-3.82
-3.65
-3.14
-2.71
-2.78
-3.46
-4.60
-5.75
-6.48
-6.60
-6.26
-5.87
-5.87
-6.48
-7.55
-8.71
-9.65
-10.29
-10.89
-11.83
-13.32
-15.18
-16.87
-17.75
-17.36
-15.67
-13.00
-9.90
-6.79
-3.91
-1.27
1.20
3.50
5.42
6.68
6.98
6.23
4.65
2.75
1.12
0.28
0.41
1.40
2.90
4.54
6.10
7.52
8.82
9.99
10.96
11.60
11.80
11.53
10.79
9.65
8.20
6.62
5.14
4.09
3.75
4.26
5.49
7.10
8.65
9.74
10.13
9.74
8.66
7.05
5.18
3.25
1.39
-0.46
-2.48
-4.91
-7.90
-11.37
-14.96
-18.09
-20.16
-20.77
-19.91
-17.90
-15.29
-12.58
-10.05
-7.65
-5.19
-2.49
0.41
3.20
5.45
6.77
6.99
6.23
4.74
2.89
1.00
-0.66
-1.88
-2.50
-2.43
-1.77
-0.64
0.71
2.07
3.28
4.21
4.77
4.93
4.68
4.13
3.48
2.94
2.63
2.51
2.38
2.06
1.45
0.63
-0.21
-0.91
-1.41
-1.80
-2.21
-2.70
-3.22
-3.69
-4.11
-4.69
-5.78
-7.74
-10.67
-14.32
-18.13
-21.45
-23.72
-24.59
-24.03
-22.23
-19.51
-16.26
-12.84
-9.55
-6.54
-3.92
-1.78
-0.20
0.66
0.76
0.14
-0.96
-2.21
-3.26
-3.88
-3.97
-3.53
-2.57
-1.08
0.94
3.43
6.29
9.29
12.18
14.73
16.70
17.89
18.12
17.28
15.40
12.73
9.72
7.03
5.28
4.87
5.86
7.88
10.26
12.36
13.73
14.24
14.06
13.42
12.45
11.10
9.18
6.52
3.10
-0.96
-5.49
-10.40
-15.67
-21.33
-27.22
-32.95
-37.83
-41.08
-42.03
-40.30
-35.90
-29.15
-20.63
-11.17
-1.74
6.59
12.88
16.53
17.54
16.43
14.11
11.51
9.24
7.51
6.18
4.97
3.63
2.05
0.19
-1.91
-4.02
-5.75
-6.59
-6.17
-4.47
-1.94
0.76
3.14
5.14
7.10
9.36
11.83
13.82
14.38
12.76
8.90
3.49
-2.48
-8.10
-12.94
-16.94
-20.11
-22.38
-23.51
-23.31
-21.86
-19.49
-16.62
-13.55
-10.26
-6.49
-1.96
3.41
9.37
15.31
20.44
24.01
25.62
25.36
23.82
21.98
20.70
20.45
21.05
21.80
21.91
20.88
18.78
16.14
13.63
11.65
10.21
9.01
7.68
6.08
4.33
2.74
1.58
0.92
0.60
0.39
0.11
-0.29
-0.70
-0.98
-0.98
-0.70
-0.27
0.08
0.13
-0.26
-1.07
-2.10
-3.09
-3.85
-4.35
-4.77
-5.45
-6.76
-8.92
-11.87
-15.26
-18.56
-21.19
-22.69
-22.74
-21.22
-18.18
-13.84
-8.69
-3.39
1.26
4.58
6.26
6.41
5.50
4.18
2.97
2.17
1.84
1.87
2.16
2.66
3.47
4.70
6.41
8.42
10.37
11.80
12.35
11.95
10.86
9.58
8.63
8.37
9.01
10.64
13.23
16.63
20.43
23.93
26.21
26.50
24.39
20.01
13.95
7.04
0.14
-5.97
-10.72
-13.82
-15.45
-16.25
-17.21
-19.23
-22.73
-27.43
-32.46
-36.77
-39.58
-40.54
-39.66
-37.10
-33.02
-27.62
-21.31
-14.83
-9.08
-4.85
-2.46
-1.66
-1.78
-2.10
-2.13
-1.81
-1.33
-0.94
-0.70
-0.49
-0.03
0.92
2.43
4.40
6.60
8.75
10.61
11.99
12.83
13.14
13.04
12.74
12.49
12.46
12.67
12.98
13.13
12.84
12.04
10.85
9.56
8.47
7.71
7.17
6.62
5.83
4.71
3.39
2.06
0.94
0.09
-0.62
-1.45
-2.75
-4.84
-7.89
-11.81
-16.17
-20.30
-23.43
-24.92
-24.51
-22.37
-19.00
-15.00
-10.85
-6.86
-3.19
0.05
2.70
4.67
6.05
7.06
8.01
9.09
10.24
11.18
11.51
11.02
9.77
8.11
6.44
5.11
4.24
3.84
3.87
4.35
5.34
6.85
8.74
10.72
12.42
13.60
14.15
14.19
13.91
13.44
12.76
11.73
10.17
8.10
5.72
3.45
1.69
0.64
0.14
-0.23
-0.99
-2.48
-4.62
-7.03
-9.14
-10.60
-11.44
-12.04
-13.04
-14.91
-17.81
-21.41
-25.04
-27.96
-29.53
-29.45
-27.65
-24.30
-19.69
-14.22
-8.39
-2.76
2.14
5.93
8.57
10.29
11.47
12.46
13.43
14.35
15.11
15.67
16.10
16.51
16.98
17.44
17.74
17.81
17.66
17.46
17.40
17.58
17.98
18.45
18.84
19.05
19.09
18.94
18.58
17.90
16.81
15.28
13.43
11.56
9.96
8.84
8.24
7.96
7.66
7.04
5.91
4.26
2.27
0.18
-1.74
-3.33
-4.52
-5.40
-6.25
-7.52
-9.71
-13.11
-17.65
-22.72
-27.35
-30.47
-31.37
-29.92
-26.54
-21.99
-17.01
-12.10
-7.52
-3.36
0.32
3.43
5.90
7.73
9.03
9.87
10.24
10.02
9.04
7.22
4.77
2.09
-0.27
-1.86
-2.42
-1.99
-0.78
0.91
2.73
4.38
5.63
6.32
6.47
6.21
5.74
5.23
4.79
4.36
3.89
3.38
3.00
3.01
3.65
4.90
6.43
7.67
8.02
7.12
4.98
1.99
-1.27
-4.29
-6.79
-8.87
-10.80
-12.89
-15.27
-17.86
-20.41
-22.58
-24.02
-24.41
-23.48
-21.05
-17.11
-11.91
-6.05
-0.37
4.30
7.35
8.77
9.00
8.81
8.85
9.46
10.61
12.08
13.71
15.53
17.62
19.92
22.05
23.41
23.44
22.00
19.44
16.50
13.90
12.06
11.02
10.64
10.84
11.72
13.45
15.97
18.81
21.22
22.38
21.87
19.82
16.88
13.87
11.42
9.72
8.47
7.10
5.08
2.08
-1.82
-6.16
-10.21
-13.31
-15.06
-15.53
-15.25
-14.95
-15.35
-16.83
-19.31
-22.33
-25.14
-26.92
-26.93
-24.71
-20.20
-13.88
-6.72
0.12
5.56
9.08
10.79
11.37
11.59
11.97
12.48
12.73
12.21
10.71
8.47
6.01
3.88
2.29
1.11
0.03
-1.18
-2.52
-3.78
-4.65
-4.94
-4.53
-3.40
-1.54
1.01
4.06
7.25
10.13
12.22
13.24
13.11
11.94
9.95
7.40
4.63
2.09
0.19
-0.76
-0.81
-0.28
0.32
0.62
0.48
0.06
-0.48
-1.13
-2.19
-4.07
-7.04
-10.90
-14.96
-18.23
-19.75
-19.02
-16.14
-11.74
-6.73
-1.90
2.19
5.36
7.62
9.02
9.59
9.30
8.13
6.22
3.86
1.47
-0.53
-1.81
-2.24
-1.86
-0.89
0.41
1.75
2.97
3.94
4.68
5.22
5.61
5.92
6.15
6.27
6.13
5.59
4.45
2.67
0.31
-2.49
-5.49
-8.50
-11.33
-13.78
-15.59
-16.48
-16.28
-14.93
-12.67
-9.96
-7.51
-6.03
-6.10
-7.89
-11.17
-15.25
-19.15
-21.93
-22.92
-21.93
-19.21
-15.34
-10.94
-6.48
-2.22
1.81
5.64
9.30
12.63
15.38
17.21
17.86
17.28
15.71
13.65
11.67
10.23
9.61
9.71
10.29
10.93
11.31
11.27
10.85
10.23
9.64
9.20
9.00
9.07
9.48
10.37
11.83
13.82
16.09
18.20
19.66
20.09
19.32
17.41
14.53
10.88
6.63
1.93
-3.08
-8.19
-13.17
-17.78
-21.83
-25.24
-28.07
-30.52
-32.83
-35.10
-37.17
-38.57
-38.62
-36.81
-33.06
-27.80
-21.90
-16.23
-11.35
-7.39
-4.13
-1.34
1.06
2.90
3.98
4.24
3.91
3.38
2.99
2.94
3.22
3.75
4.48
5.46
6.75
8.32
10.02
11.60
12.79
13.44
13.49
12.93
11.80
10.14
8.12
6.02
4.17
2.91
2.34
2.37
2.75
3.16
3.42
3.37
2.89
1.84
0.14
-2.10
-4.49
-6.39
-7.16
-6.45
-4.46
-1.93
0.14
0.94
0.13
-2.00
-4.66
-6.92
-8.01
-7.54
-5.55
-2.44
1.21
4.81
7.91
10.27
11.86
12.86
13.54
14.16
14.87
15.62
16.20
16.36
15.98
15.14
14.15
13.36
13.03
13.25
13.90
14.79
15.75
16.73
17.66
18.46
18.90
18.74
17.84
16.31
14.48
12.79
11.54
10.73
10.02
8.91
6.96
4.07
0.53
-3.10
-6.24
-8.63
-10.37
-11.94
-13.89
-16.63
-20.25
-24.51
-28.97
-33.03
-36.14
-37.80
-37.67
-35.64
-31.91
-27.00
-21.68
-16.68
-12.50
-9.27
-6.79
-4.75
-2.90
-1.20
0.22
1.20
1.75
2.02
2.24
2.65
3.36
4.31
5.38
6.43
7.34
8.06
8.55
8.80
8.78
8.50
8.02
7.48
7.07
6.97
7.25
7.82
8.38
8.51
7.76
5.91
3.04
-0.43
-3.86
-6.71
-8.76
-10.18
-11.44
-13.06
-15.35
-18.24
-21.37
-24.20
-26.20
-26.95
-26.24
-23.98
-20.32
-15.60
-10.36
-5.31
-1.02
2.14
4.14
5.20
5.63
5.66
5.44
5.06
4.60
4.17
3.94
3.99
4.34
4.89
5.48
5.99
6.41
6.87
7.61
8.83
10.59
12.67
14.65
16.01
16.31
15.46
13.63
11.29
8.96
7.07
5.86
5.32
5.22
5.16
4.70
3.46
1.28
-1.65
-4.90
-8.00
-10.70
-13.10
-15.64
-18.77
-22.77
-27.47
-32.23
-36.21
-38.51
-38.48
-35.78
-30.48
-22.99
-14.03
-4.57
4.36
11.78
17.05
19.96
20.76
20.10
18.74
17.39
16.45
15.89
15.35
14.30
12.31
9.29
5.57
1.83
-1.12
-2.70
-2.76
-1.70
-0.19
1.08
1.77
2.04
2.38
3.33
5.13
7.59
10.10
11.96
12.65
12.00
10.19
7.64
4.89
2.42
0.63
-0.29
-0.44
-0.17
-0.07
-0.78
-2.73
-6.00
-10.21
-14.64
-18.42
-20.75
-21.12
-19.40
-15.89
-11.16
-5.91
-0.82
3.64
7.21
9.82
11.56
12.58
13.07
13.20
13.05
12.69
12.11
11.28
10.23
9.15
8.34
8.14
8.76
10.17
12.08
14.06
15.72
16.79
17.23
17.11
16.50
15.44
13.87
11.75
9.13
6.15
3.01
-0.08
-2.90
-5.27
-6.92
-7.54
-6.96
-5.30
-3.20
-1.76
-2.31
-5.78
-12.25
-20.60
-28.94
-35.26
-38.31
-37.98
-35.17
-31.11
-26.62
-21.83
-16.34
-9.85
-2.61
4.51
10.38
14.26
16.10
16.53
16.37
16.22
16.18
16.00
15.36
14.17
12.64
11.21
10.34
10.32
11.10
12.25
13.12
13.05
11.57
8.77
5.24
1.91
-0.27
-0.81
0.16
1.95
3.65
4.49
4.10
2.53
0.05
-3.07
-6.54
-10.14
-13.52
-16.24
-17.93
-18.49
-18.27
-17.93
-18.19
-19.37
-21.23
-22.96
-23.61
-22.41
-19.21
-14.44
-8.93
-3.49
1.34
5.40
8.72
11.41
13.42
14.68
15.14
14.90
14.24
13.50
12.92
12.67
12.77
13.21
13.91
14.76
15.55
16.05
16.11
15.73
15.10
14.43
13.80
13.06
11.92
10.21
7.97
5.58
3.52
2.15
1.48
1.24
1.00
0.43
-0.59
-1.98
-3.61
-5.38
-7.25
-9.19
-11.08
-12.79
-14.23
-15.50
-16.90
-18.79
-21.37
-24.46
-27.52
-29.73
-30.35
-29.03
-25.82
-21.22
-15.86
-10.32
-4.97
0.00
4.51
8.45
11.67
14.00
15.31
15.55
14.77
13.10
10.72
7.89
5.01
2.64
1.37
1.68
3.76
7.40
12.03
16.89
21.27
24.65
26.78
27.70
27.58
26.67
25.15
23.16
20.81
18.23
15.62
13.22
11.24
9.70
8.45
7.22
5.74
3.90
1.81
-0.32
-2.29
-4.01
-5.58
-7.26
-9.32
-12.01
-15.37
-19.25
-23.22
-26.71
-29.07
-29.85
-28.90
-26.43
-22.91
-18.89
-14.80
-10.89
-7.25
-3.95
-1.13
1.05
2.44
3.04
3.06
2.81
2.61
2.66
2.99
3.58
4.38
5.40
6.67
8.13
9.55
10.62
11.05
10.73
9.80
8.53
7.26
6.14
5.23
4.47
3.79
3.13
2.43
1.62
0.62
-0.61
-2.01
-3.42
-4.66
-5.62
-6.29
-6.82
-7.38
-8.12
-9.12
-10.43
-12.07
-14.04
-16.29
-18.68
-20.84
-22.27
-22.40
-20.76
-17.22
-12.06
-6.03
-0.05
5.02
8.71
11.02
12.36
13.25
14.07
14.93
15.65
15.99
15.81
15.16
14.25
13.31
12.52
11.92
11.55
11.42
11.62
12.23
13.20
14.31
15.25
15.70
15.47
14.55
13.07
11.24
9.23
7.22
5.28
3.43
1.59
-0.36
-2.53
-4.92
-7.37
-9.67
-11.63
-13.23
-14.70
-16.33
-18.41
-21.05
-24.20
-27.58
-30.77
-33.23
-34.36
-33.65
-30.88
-26.25
-20.40
-14.17
-8.36
-3.42
0.61
3.95
6.81
9.17
10.82
11.55
11.37
10.58
9.71
9.23
9.34
9.90
10.61
11.10
11.16
10.76
9.95
8.83
7.51
6.13
4.93
4.15
4.03
4.64
5.92
7.62
9.47
11.20
12.57
13.40
13.48
12.60
10.64
7.68
4.04
0.26
-3.05
-5.46
-6.85
-7.49
-7.89
-8.50
-9.53
-10.93
-12.47
-13.92
-15.16
-16.13
-16.77
-16.95
-16.53
-15.47
-13.88
-12.05
-10.30
-8.86
-7.75
-6.90
-6.21
-5.72
-5.51
-5.64
-6.01
-6.32
-6.24
-5.52
-4.18
-2.39
-0.40
1.68
3.99
6.82
10.35
14.45
18.59
21.96
23.90
24.15
23.06
21.40
19.93
19.09
18.76
18.50
17.80
16.50
14.83
13.25
12.12
11.42
10.71
9.40
7.11
3.88
0.18
-3.31
-6.10
-8.09
-9.65
-11.36
-13.67
-16.65
-19.91
-22.75
-24.49
-24.73
-23.55
-21.39
-18.83
-16.36
-14.16
-12.17
-10.19
-8.16
-6.16
-4.40
-3.09
-2.25
-1.71
-1.26
-0.69
0.04
0.82
1.50
1.96
2.22
2.36
2.53
2.88
3.52
4.54
5.92
7.58
9.27
10.59
11.18
10.83
9.60
7.85
6.06
4.62
3.65
2.99
2.23
1.05
-0.70
-2.85
-5.06
-6.88
-8.03
-8.41
-8.18
-7.68
-7.37
-7.66
-8.74
-10.55
-12.70
-14.65
-15.90
-16.09
-15.17
-13.26
-10.62
-7.56
-4.36
-1.27
1.53
3.94
5.92
7.46
8.52
9.01
8.87
8.10
6.93
5.66
4.66
4.13
4.04
4.14
4.14
3.82
3.18
2.46
1.97
1.95
2.44
3.28
4.15
4.79
5.04
4.98
4.81
4.79
5.12
5.81
6.67
7.37
7.53
6.87
5.34
3.16
0.69
-1.65
-3.69
-5.56
-7.63
-10.30
-13.82
-18.03
-22.42
-26.24
-28.73
-29.32
-27.84
-24.52
-20.00
-15.09
-10.57
-7.01
-4.56
-2.97
-1.76
-0.44
1.26
3.31
5.37
6.99
7.82
7.79
7.14
6.24
5.44
4.86
4.40
3.83
2.99
1.94
0.97
0.49
0.81
2.06
4.14
6.75
9.53
12.14
14.31
15.86
16.67
16.76
16.28
15.42
14.38
13.21
11.85
10.12
7.90
5.23
2.42
-0.07
-1.88
-2.96
-3.64
-4.55
-6.31
-9.15
-12.81
-16.55
-19.50
-20.91
-20.44
-18.15
-14.40
-9.71
-4.62
0.38
4.89
8.59
11.28
12.97
13.74
13.77
13.23
12.29
11.11
9.89
8.81
7.93
7.23
6.61
6.00
5.47
5.20
5.38
6.08
7.12
8.15
8.72
8.59
7.75
6.42
4.89
3.39
1.98
0.64
-0.70
-2.06
-3.49
-5.03
-6.72
-8.50
-10.23
-11.68
-12.67
-13.23
-13.65
-14.41
-15.93
-18.34
-21.35
-24.31
-26.45
-27.13
-26.03
-23.20
-18.95
-13.83
-8.49
-3.51
0.65
3.78
5.92
7.25
7.97
8.17
7.84
6.96
5.62
4.07
2.62
1.58
1.05
1.01
1.36
2.01
2.99
4.29
5.83
7.43
8.87
10.01
10.84
11.40
11.67
11.52
10.73
9.22
7.13
4.87
2.93
1.64
1.00
0.71
0.36
-0.34
-1.48
-2.91
-4.51
-6.28
-8.41
-11.11
-14.43
-18.10
-21.46
-23.74
-24.25
-22.68
-19.22
-14.48
-9.27
-4.39
-0.36
2.62
4.69
6.13
7.21
8.06
8.69
9.01
9.00
8.71
8.28
7.87
7.61
7.53
7.66
8.06
8.79
9.86
11.07
11.95
11.97
10.74
8.30
5.28
2.56
0.92
0.67
1.48
2.58
3.18
2.86
1.71
0.08
-1.69
-3.46
-5.32
-7.37
-9.51
-11.47
-12.98
-14.03
-14.97
-16.34
-18.53
-21.48
-24.55
-26.76
-27.14
-25.14
-20.86
-14.96
-8.40
-2.18
3.00
6.78
9.24
10.64
11.33
11.60
11.55
11.26
10.86
10.62
10.88
11.84
13.26
14.51
14.78
13.38
10.20
5.79
1.16
-2.62
-4.83
-5.33
-4.49
-2.96
-1.30
0.11
1.23
2.19
3.13
4.09
4.93
5.41
5.33
4.69
3.73
2.82
2.28
2.18
2.35
2.44
2.15
1.30
-0.10
-1.98
-4.30
-6.99
-9.90
-12.62
-14.58
-15.17
-14.05
-11.33
-7.56
-3.54
0.01
2.58
4.04
4.47
4.12
3.28
2.23
1.24
0.51
0.20
0.41
1.17
2.39
3.93
5.53
6.92
7.92
8.54
8.93
9.38
10.06
10.96
11.88
12.54
12.80
12.72
12.49
12.38
12.51
12.81
13.09
13.15
12.86
12.19
11.17
9.82
8.18
6.28
4.18
2.04
0.02
-1.78
-3.32
-4.69
-6.07
-7.63
-9.54
-11.94
-14.90
-18.30
-21.84
-25.00
-27.15
-27.83
-26.87
-24.54
-21.31
-17.69
-13.97
-10.23
-6.38
-2.46
1.33
4.60
7.00
8.39
8.89
8.91
8.94
9.45
10.74
12.76
15.17
17.35
18.74
19.03
18.38
17.33
16.58
16.62
17.49
18.77
19.80
19.94
18.81
16.32
12.54
7.69
2.03
-3.98
-9.71
-14.45
-17.61
-18.90
-18.47
-16.86
-14.78
-12.93
-11.83
-11.80
-12.99
-15.39
-18.85
-23.03
-27.38
-31.19
-33.73
-34.37
-32.81
-29.04
-23.42
-16.55
-9.19
-2.06
4.27
9.51
13.58
16.56
18.57
19.70
20.02
19.66
18.82
17.79
16.88
16.29
16.01
15.92
15.75
15.33
14.60
13.71
12.94
12.51
12.59
13.04
13.61
13.89
13.64
12.74
11.31
9.62
7.97
6.58
5.55
4.93
4.62
4.48
4.26
3.69
2.58
0.90
-1.17
-3.25
-4.94
-5.98
-6.37
-6.42
-6.62
-7.49
-9.34
-12.11
-15.37
-18.41
-20.52
-21.24
-20.52
-18.78
-16.66
-14.83
-13.67
-13.12
-12.82
-12.17
-10.66
-8.03
-4.37
-0.11
4.15
7.83
10.47
11.88
12.09
11.26
9.65
7.58
5.42
3.56
2.41
2.30
3.36
5.41
8.02
10.55
12.45
13.40
13.38
12.69
11.64
10.47
9.30
8.10
6.85
5.61
4.48
3.49
2.54
1.43
-0.01
-1.84
-3.90
-5.90
-7.59
-8.97
-10.30
-12.02
-14.55
-18.04
-22.30
-26.78
-30.69
-33.21
-33.62
-31.47
-26.74
-19.86
-11.61
-2.95
5.25
12.36
17.99
21.90
23.92
24.05
22.57
20.18
17.79
16.22
15.77
16.04
16.24
15.70
14.36
12.90
12.34
13.46
16.38
20.48
24.75
28.20
30.20
30.59
29.57
27.60
25.30
23.30
22.15
22.01
22.55
23.03
22.48
20.18
15.91
10.07
3.46
-3.01
-8.65
-13.15
-16.55
-19.08
-21.00
-22.45
-23.57
-24.46
-25.42
-26.86
-29.15
-32.33
-35.95
-39.14
-40.92
-40.66
-38.37
-34.63
-30.30
-26.06
-22.14
-18.32
-14.23
-9.70
-5.04
-0.90
2.03
3.40
3.38
2.60
1.90
1.96
3.07
5.03
7.41
9.74
11.74
13.43
14.93
16.35
17.60
18.44
18.57
17.89
16.53
14.86
13.26
12.01
11.12
10.39
9.55
8.38
6.87
5.19
3.53
1.95
0.36
-1.47
-3.81
-6.76
-10.20
-13.78
-16.97
-19.20
-20.01
-19.18
-16.83
-13.34
-9.29
-5.28
-1.82
0.81
2.53
3.39
3.54
3.08
2.14
0.89
-0.42
-1.49
-2.08
-2.10
-1.63
-0.94
-0.27
0.21
0.47
0.57
0.53
0.30
-0.26
-1.25
-2.69
-4.41
-6.10
-7.32
-7.61
-6.56
-4.07
-0.43
3.65
7.24
9.55
10.25
9.54
8.04
6.41
5.02
3.81
2.38
0.36
-2.35
-5.47
-8.39
-10.49
-11.31
-10.79
-9.18
-6.98
-4.72
-2.87
-1.65
-1.08
-1.01
-1.22
-1.54
-1.86
-2.13
-2.28
-2.17
-1.60
-0.43
1.24
3.01
4.16
4.04
2.37
-0.48
-3.49
-5.42
-5.33
-3.09
0.55
4.26
6.73
7.26
5.92
3.46
0.83
-1.20
-2.31
-2.56
-2.25
-1.76
-1.45
-1.73
-2.97
-5.44
-9.12
-13.63
-18.20
-21.94
-24.04
-24.09
-22.09
-18.48
-13.95
-9.28
-5.10
-1.82
0.45
1.88
2.77
3.46
4.14
4.84
5.52
6.06
6.44
6.65
6.74
6.72
6.60
6.40
6.14
5.91
5.73
5.58
5.38
5.04
4.52
3.87
3.22
2.75
2.60
2.77
3.17
3.58
3.78
3.61
3.07
2.35
1.68
1.27
1.13
1.10
0.89
0.19
-1.20
-3.42
-6.43
-10.08
-13.95
-17.40
-19.66
-20.03
-18.22
-14.46
-9.50
-4.25
0.47
4.22
6.93
8.79
10.09
11.06
11.90
12.86
14.15
15.90
18.07
20.29
21.92
22.20
20.50
16.62
10.86
4.07
-2.57
-7.88
-10.98
-11.51
-9.70
-6.22
-1.98
2.11
5.38
7.47
8.38
8.31
7.60
6.54
5.30
3.91
2.37
0.73
-0.84
-2.05
-2.59
-2.29
-1.22
0.31
1.84
2.92
3.24
2.61
1.04
-1.38
-4.38
-7.54
-10.32
-12.11
-12.46
-11.21
-8.61
-5.20
-1.61
1.61
4.12
5.80
6.75
7.09
7.02
6.72
6.32
5.87
5.36
4.74
3.98
3.15
2.37
1.80
1.49
1.41
1.45
1.48
1.47
1.49
1.66
2.08
2.73
3.43
3.92
4.00
3.55
2.65
1.46
0.22
-0.91
-1.86
-2.60
-3.20
-3.70
-4.08
-4.28
-4.22
-3.87
-3.28
-2.62
-2.16
-2.19
-2.88
-4.31
-6.40
-8.97
-11.80
-14.52
-16.71
-17.88
-17.70
-16.04
-13.19
-9.74
-6.34
-3.50
-1.40
0.06
1.18
2.21
3.31
4.47
5.58
6.56
7.35
7.97
8.50
9.00
9.50
9.98
10.32
10.41
10.20
9.74
9.22
8.88
8.95
9.47
10.31
11.15
11.66
11.57
10.82
9.56
8.08
6.70
5.58
4.72
3.97
3.14
2.13
0.92
-0.44
-1.85
-3.27
-4.68
-6.11
-7.67
-9.46
-11.65
-14.30
-17.28
-20.21
-22.49
-23.49
-22.83
-20.49
-16.84
-12.51
-8.14
-4.20
-0.92
1.61
3.40
4.41
4.61
3.98
2.62
0.77
-1.28
-3.22
-4.82
-5.91
-6.39
-6.09
-4.85
-2.54
0.70
4.42
7.87
10.27
11.11
10.40
8.73
6.94
5.85
5.84
6.75
8.04
9.02
9.19
8.39
6.81
4.79
2.70
0.76
-0.97
-2.56
-4.12
-5.74
-7.53
-9.61
-12.17
-15.24
-18.62
-21.72
-23.62
-23.42
-20.69
-15.70
-9.37
-2.89
2.86
7.58
11.53
15.08
18.23
20.60
21.62
21.08
19.41
17.49
16.15
15.63
15.41
14.46
11.89
7.56
2.16
-3.00
-6.63
-8.07
-7.46
-5.62
-3.57
-2.06
-1.30
-1.03
-0.76
-0.14
0.83
1.85
2.50
2.49
1.79
0.62
-0.74
-2.02
-3.16
-4.29
-5.65
-7.54
-10.11
-13.33
-16.81
-19.93
-21.92
-22.19
-20.49
-17.02
-12.41
-7.42
-2.70
1.36
4.67
7.31
9.29
10.51
10.81
10.02
8.24
5.82
3.32
1.27
0.09
-0.18
0.22
0.87
1.35
1.47
1.26
1.02
1.07
1.54
2.33
3.11
3.53
3.39
2.77
1.92
1.18
0.72
0.53
0.46
0.31
-0.04
-0.60
-1.22
-1.75
-2.00
-1.88
-1.49
-1.08
-1.03
-1.77
-3.57
-6.47
-10.16
-14.13
-17.72
-20.29
-21.27
-20.32
-17.41
-12.91
-7.62
-2.49
1.64
4.36
5.80
6.47
6.98
7.70
8.65
9.58
10.22
10.46
10.45
10.37
10.43
10.60
10.73
10.57
10.00
9.04
7.97
7.14
6.88
7.27
8.15
9.13
9.76
9.79
9.24
8.31
7.24
6.05
4.60
2.61
-0.02
-3.10
-6.19
-8.71
-10.25
-10.69
-10.35
-9.78
-9.63
-10.42
-12.40
-15.47
-19.18
-22.84
-25.70
-27.09
-26.67
-24.46
-20.77
-16.13
-11.07
-5.97
-1.08
3.47
7.51
10.84
13.20
14.47
14.74
14.35
13.71
13.11
12.59
11.99
11.11
9.92
8.61
7.54
6.98
6.94
7.24
7.61
7.83
7.83
7.63
7.26
6.71
5.97
5.08
4.16
3.37
2.73
2.12
1.31
0.07
-1.62
-3.55
-5.35
-6.74
-7.67
-8.44
-9.61
-11.64
-14.67
-18.35
-21.90
-24.32
-24.77
-22.76
-18.27
-11.70
-3.73
4.76
12.83
19.58
24.28
26.56
26.44
24.33
20.89
16.88
12.95
9.61
7.16
5.66
4.93
4.66
4.44
3.94
2.99
1.60
-0.10
-1.92
-3.73
-5.35
-6.63
-7.37
-7.40
-6.75
-5.65
-4.53
-3.80
-3.73
-4.29
-5.22
-6.17
-6.84
-7.10
-7.01
-6.73
-6.39
-6.10
-5.84
-5.64
-5.57
-5.78
-6.43
-7.60
-9.14
-10.69
-11.74
-11.76
-10.45
-7.80
-4.10
0.14
4.35
8.08
11.09
13.38
15.10
16.47
17.61
18.48
18.93
18.77
17.91
16.49
14.77
13.12
11.79
10.90
10.37
10.02
9.63
9.14
8.63
8.32
8.46
9.16
10.25
11.24
11.47
10.42
8.01
4.67
1.26
-1.34
-2.58
-2.49
-1.57
-0.55
0.02
-0.10
-0.84
-2.02
-3.47
-5.09
-6.79
-8.43
-9.89
-11.14
-12.33
-13.75
-15.66
-18.06
-20.58
-22.50
-23.04
-21.67
-18.37
-13.65
-8.41
-3.62
0.07
2.51
4.04
5.25
6.56
7.99
9.19
9.65
9.07
7.60
5.76
4.24
3.54
3.79
4.85
6.49
8.55
11.02
13.98
17.38
20.95
24.23
26.65
27.68
27.00
24.54
20.56
15.58
10.25
5.24
1.04
-2.11
-4.18
-5.35
-5.87
-6.02
-6.15
-6.56
-7.52
-9.13
-11.28
-13.60
-15.73
-17.41
-18.74
-20.08
-21.78
-23.94
-26.15
-27.62
-27.46
-25.18
-20.82
-14.95
-8.34
-1.64
4.84
10.95
16.55
21.30
24.71
26.39
26.27
24.71
22.28
19.50
16.65
13.77
10.87
8.12
5.85
4.46
4.17
4.84
5.97
6.85
6.86
5.74
3.64
1.11
-1.20
-2.83
-3.65
-3.93
-4.14
-4.69
-5.74
-7.18
-8.72
-10.05
-10.92
-11.13
-10.57
-9.13
-6.94
-4.38
-2.10
-0.82
-0.95
-2.40
-4.66
-7.04
-9.20
-11.30
-13.79
-17.02
-20.76
-24.14
-25.93
-25.23
-21.82
-16.34
-9.92
-3.73
1.49
5.41
8.12
9.85
10.81
11.22
11.26
11.06
10.70
10.25
9.76
9.37
9.26
9.53
10.16
10.92
11.51
11.71
11.49
11.03
10.54
10.19
10.00
9.90
9.80
9.69
9.66
9.79
10.13
10.59
10.98
11.06
10.66
9.76
8.52
7.16
5.91
4.78
3.66
2.29
0.50
-1.70
-4.04
-6.18
-7.88
-9.19
-10.44
-12.12
-14.50
-17.56
-20.85
-23.76
-25.69
-26.24
-25.28
-22.92
-19.46
-15.27
-10.83
-6.64
-3.08
-0.31
1.72
3.23
4.47
5.52
6.36
6.84
6.90
6.57
6.05
5.56
5.28
5.33
5.78
6.65
7.92
9.45
11.01
12.29
13.00
12.98
12.28
11.17
9.98
9.00
8.32
7.83
7.29
6.49
5.30
3.74
1.99
0.33
-0.93
-1.59
-1.62
-1.25
-0.91
-1.08
-2.13
-4.21
-7.21
-10.88
-14.83
-18.63
-21.75
-23.60
-23.63
-21.58
-17.68
-12.66
-7.57
-3.30
-0.34
1.41
2.46
3.38
4.52
5.78
6.77
7.06
6.43
5.07
3.43
2.08
1.36
1.36
1.88
2.62
3.34
3.99
4.63
5.41
6.36
7.44
8.50
9.27
9.49
8.88
7.26
4.57
0.94
-3.28
-7.52
-11.12
-13.51
-14.32
-13.56
-11.60
-9.00
-6.34
-4.04
-2.28
-1.11
-0.53
-0.68
-1.82
-4.14
-7.68
-12.11
-16.81
-20.97
-23.84
-24.88
-23.89
-21.01
-16.71
-11.70
-6.79
-2.70
0.15
1.74
2.43
2.83
3.46
4.57
6.04
7.51
8.58
9.02
8.88
8.41
7.91
7.62
7.57
7.67
7.80
7.86
7.86
7.90
8.05
8.34
8.70
9.01
9.13
9.04
8.79
8.47
8.13
7.70
7.04
6.01
4.56
2.83
1.03
-0.62
-2.01
-3.18
-4.30
-5.57
-7.13
-9.03
-11.21
-13.58
-16.05
-18.49
-20.76
-22.64
-23.84
-23.98
-22.73
-19.93
-15.63
-10.23
-4.44
0.90
4.96
7.20
7.61
6.67
5.24
4.27
4.37
5.69
7.84
10.19
12.10
13.18
13.31
12.57
11.14
9.22
7.18
5.55
4.96
5.82
8.05
10.94
13.41
14.51
14.01
12.55
11.31
11.30
12.75
14.91
16.48
16.37
14.24
10.61
6.42
2.45
-1.00
-4.02
-6.74
-8.92
-10.06
-9.70
-7.89
-5.30
-3.00
-1.95
-2.57
-4.47
-6.77
-8.37
-8.47
-6.74
-3.45
0.72
4.84
8.08
9.87
10.00
8.68
6.34
3.37
0.11
-3.26
-6.48
-9.11
-10.63
-10.62
-9.05
-6.44
-3.69
-1.69
-0.95
-1.42
-2.54
-3.62
-4.17
-4.05
-3.42
-2.57
-1.68
-0.84
0.01
0.97
2.09
3.33
4.50
5.31
5.44
4.65
2.94
0.60
-1.98
-4.44
-6.69
-8.95
-11.63
-15.03
-19.22
-23.89
-28.49
-32.44
-35.20
-36.50
-36.22
-34.45
-31.38
-27.24
-22.26
-16.71
-10.86
-5.05
0.35
4.92
8.31
10.30
10.86
10.19
8.67
6.77
4.96
3.64
3.03
3.20
3.98
5.08
6.16
7.01
7.64
8.26
9.18
10.57
12.31
13.97
15.02
15.03
14.00
12.22
10.17
8.25
6.55
4.97
3.40
1.88
0.63
-0.10
-0.24
0.02
0.26
0.08
-0.72
-2.12
-3.94
-5.99
-8.18
-10.34
-12.26
-13.56
-13.88
-12.95
-10.81
-7.74
-4.18
-0.57
2.82
5.89
8.62
11.01
13.01
14.48
15.26
15.26
14.50
13.22
11.71
10.33
9.34
8.85
8.76
8.91
9.05
9.00
8.71
8.24
7.71
7.24
6.89
6.58
6.15
5.42
4.27
2.75
0.97
-0.85
-2.55
-4.08
-5.45
-6.73
-7.99
-9.17
-10.19
-10.92
-11.31
-11.52
-11.91
-12.97
-15.09
-18.40
-22.57
-26.82
-30.16
-31.71
-30.97
-27.99
-23.26
-17.53
-11.51
-5.78
-0.69
3.57
6.95
9.46
11.18
12.24
12.76
12.82
12.45
11.70
10.62
9.43
8.38
7.76
7.76
8.44
9.75
11.49
13.41
15.14
16.34
16.71
16.18
14.90
13.19
11.45
9.91
8.59
7.34
5.98
4.47
2.94
1.60
0.57
-0.25
-1.09
-2.24
-3.81
-5.70
-7.66
-9.45
-11.01
-12.45
-14.01
-15.88
-18.05
-20.29
-22.22
-23.38
-23.41
-22.10
-19.48
-15.71
-11.15
-6.21
-1.36
2.98
6.56
9.27
11.31
13.00
14.68
16.56
18.54
20.25
21.21
20.99
19.49
16.90
13.73
10.52
7.70
5.56
4.17
3.52
3.55
4.09
4.88
5.58
5.87
5.59
4.85
3.94
3.20
2.83
2.81
2.88
2.72
2.04
0.76
-0.97
-2.78
-4.25
-5.03
-5.02
-4.40
-3.56
-3.00
-3.12
-4.13
-5.99
-8.52
-11.39
-14.22
-16.58
-18.06
-18.35
-17.30
-15.03
-11.84
-8.16
-4.39
-0.86
2.21
4.69
6.52
7.75
8.47
8.77
8.69
8.23
7.42
6.36
5.22
4.28
3.77
3.77
4.23
5.04
6.06
7.19
8.34
9.36
10.08
10.35
10.15
9.58
8.86
8.19
7.65
7.17
6.55
5.65
4.40
2.83
1.05
-0.81
-2.65
-4.37
-5.91
-7.27
-8.61
-10.15
-12.14
-14.70
-17.76
-21.01
-23.97
-26.08
-26.86
-25.99
-23.37
-19.13
-13.65
-7.46
-1.20
4.52
9.21
12.63
14.71
15.58
15.48
14.67
13.40
11.91
10.39
9.07
8.10
7.63
7.67
8.13
8.82
9.60
10.42
11.40
12.65
14.23
15.94
17.39
18.12
17.78
16.34
13.99
11.07
7.95
4.82
1.78
-1.15
-3.88
-6.25
-8.10
-9.37
-10.19
-10.85
-11.78
-13.37
-15.92
-19.36
-23.33
-27.22
-30.33
-32.12
-32.33
-31.03
-28.48
-25.02
-20.91
-16.33
-11.39
-6.25
-1.19
3.49
7.39
10.22
11.79
12.13
11.53
10.47
9.49
9.05
9.32
10.20
11.43
12.70
13.83
14.76
15.52
16.12
16.50
16.54
16.18
15.40
14.31
13.09
11.92
10.92
10.06
9.20
8.15
6.69
4.76
2.47
0.07
-2.16
-4.01
-5.45
-6.59
-7.70
-9.05
-10.89
-13.39
-16.55
-20.21
-23.92
-27.01
-28.73
-28.44
-25.93
-21.48
-15.82
-9.88
-4.48
-0.09
3.25
5.75
7.67
9.18
10.26
10.79
10.70
10.04
9.06
8.12
7.55
7.56
8.15
9.08
10.05
10.76
11.14
11.37
11.77
12.61
13.95
15.56
16.99
17.74
17.46
16.10
13.91
11.32
8.76
6.55
4.74
3.17
1.63
-0.04
-1.92
-3.96
-6.09
-8.30
-10.55
-12.83
-15.08
-17.21
-19.18
-21.03
-22.85
-24.67
-26.36
-27.61
-27.97
-27.05
-24.65
-20.83
-15.95
-10.58
-5.34
-0.70
3.13
6.24
8.90
11.37
13.71
15.79
17.40
18.39
18.80
18.78
18.46
17.91
17.08
15.91
14.54
13.23
12.27
11.86
11.94
12.26
12.48
12.33
11.64
10.41
8.73
6.74
4.69
2.79
1.24
0.15
-0.56
-1.06
-1.58
-2.24
-3.09
-4.04
-4.93
-5.64
-6.13
-6.43
-6.72
-7.23
-8.28
-10.14
-12.93
-16.47
-20.28
-23.62
-25.71
-25.95
-24.13
-20.46
-15.53
-10.07
-4.74
-0.00
3.94
7.07
9.42
11.02
11.90
12.11
11.74
10.99
10.12
9.37
8.90
8.73
8.79
8.94
9.10
9.33
9.75
10.47
11.51
12.73
13.82
14.39
14.12
12.87
10.78
8.17
5.45
2.94
0.75
-1.22
-3.13
-5.03
-6.70
-7.75
-7.75
-6.56
-4.47
-2.18
-0.54
-0.25
-1.60
-4.39
-8.11
-12.13
-15.84
-18.76
-20.54
-20.88
-19.62
-16.75
-12.53
-7.41
-2.00
3.10
7.47
10.92
13.43
15.07
15.94
16.15
15.79
14.96
13.76
12.26
10.40
8.07
5.21
1.98
-1.15
-3.51
-4.44
-3.74
-1.76
0.67
2.57
3.28
2.71
1.34
-0.09
-0.91
-0.91
-0.22
0.71
1.41
1.55
1.00
-0.15
-1.65
-3.14
-4.30
-4.96
-5.21
-5.41
-5.99
-7.34
-9.64
-12.77
-16.38
-19.93
-22.79
-24.32
-24.05
-21.77
-17.68
-12.30
-6.45
-0.98
3.39
6.25
7.55
7.54
6.69
5.52
4.48
3.91
3.93
4.49
5.38
6.32
7.01
7.24
6.94
6.21
5.32
4.54
4.14
4.17
4.48
4.77
4.74
4.20
3.12
1.68
0.15
-1.17
-2.09
-2.59
-2.87
-3.22
-3.79
-4.48
-4.80
-4.12
-1.99
1.41
5.19
7.89
8.12
5.22
-0.38
-7.21
-13.37
-17.19
-17.70
-14.82
-9.09
-1.46
7.03
15.28
22.29
27.20
29.52
29.21
26.74
22.93
18.62
14.52
11.05
8.39
6.52
5.25
4.22
2.94
0.89
-2.24
-6.27
-10.55
-13.98
-15.50
-14.48
-11.08
-6.27
-1.50
1.88
3.14
2.47
0.80
-0.66
-0.97
0.17
2.27
4.40
5.56
5.23
3.49
0.96
-1.56
-3.53
-4.92
-6.14
-7.87
-10.61
-14.35
-18.49
-22.11
-24.28
-24.49
-22.73
-19.47
-15.34
-11.02
-7.02
-3.68
-1.17
0.51
1.59
2.44
3.42
4.73
6.31
7.85
9.05
9.77
10.14
10.42
10.81
11.31
11.71
11.86
11.74
11.54
11.53
11.82
12.19
12.19
11.33
9.38
6.55
3.38
0.57
-1.38
-2.38
-2.70
-2.87
-3.36
-4.33
-5.65
-6.99
-8.07
-8.93
-9.89
-11.45
-13.96
-17.40
-21.33
-25.01
-27.67
-28.71
-27.85
-25.12
-20.80
-15.37
-9.46
-3.71
1.32
5.27
8.10
9.99
11.25
12.10
12.61
12.70
12.28
11.37
10.19
9.00
8.04
7.34
6.78
6.18
5.46
4.77
4.35
4.39
4.86
5.49
5.87
5.65
4.77
3.45
2.08
1.04
0.51
0.50
0.85
1.42
2.11
2.80
3.36
3.56
3.14
1.86
-0.34
-3.37
-6.97
-10.76
-14.33
-17.20
-18.88
-18.95
-17.22
-13.74
-8.93
-3.40
2.14
7.02
10.67
12.66
12.74
10.96
7.81
4.12
0.90
-1.01
-1.24
-0.02
1.97
3.93
5.19
5.47
4.95
4.07
3.41
3.44
4.36
6.02
7.99
9.73
10.79
11.02
10.67
10.19
10.00
10.20
10.55
10.56
9.79
8.08
5.63
2.87
0.30
-1.74
-3.10
-3.84
-4.16
-4.43
-5.11
-6.68
-9.51
-13.62
-18.56
-23.47
-27.32
-29.26
-28.87
-26.25
-21.89
-16.52
-10.85
-5.49
-0.88
2.73
5.35
7.17
8.51
9.62
10.63
11.44
11.86
11.79
11.29
10.65
10.15
10.03
10.26
10.70
11.20
11.69
12.23
12.86
13.56
14.09
14.17
13.60
12.37
10.71
8.96
7.36
6.02
4.82
3.58
2.14
0.48
-1.31
-3.03
-4.51
-5.63
-6.37
-6.80
-7.11
-7.51
-8.26
-9.58
-11.54
-14.14
-17.18
-20.35
-23.24
-25.40
-26.39
-25.88
-23.70
-19.96
-15.02
-9.42
-3.82
1.24
5.43
8.63
10.98
12.65
13.81
14.59
15.06
15.27
15.30
15.18
14.93
14.52
13.93
13.27
12.76
12.71
13.29
14.47
15.86
16.88
17.00
15.93
13.82
11.09
8.35
6.05
4.45
3.55
3.25
3.41
3.82
4.23
4.28
3.64
2.12
-0.17
-2.89
-5.61
-8.03
-10.21
-12.48
-15.29
-18.95
-23.38
-28.07
-32.19
-34.90
-35.56
-33.90
-30.09
-24.65
-18.32
-11.89
-6.07
-1.36
2.05
4.30
5.79
7.00
8.33
9.95
11.72
13.27
14.23
14.38
13.80
12.82
11.91
11.52
11.85
12.81
14.11
15.31
16.07
16.29
16.01
15.40
14.62
13.69
12.59
11.33
10.01
8.79
7.73
6.74
5.59
4.02
1.88
-0.80
-3.79
-6.79
-9.51
-11.69
-13.18
-14.00
-14.35
-14.64
-15.37
-16.97
-19.61
-23.01
-26.56
-29.47
-31.07
-30.95
-29.09
-25.75
-21.40
-16.59
-11.76
-7.23
-3.13
0.53
3.79
6.64
9.05
11.00
12.56
13.88
15.13
16.40
17.60
18.52
18.89
18.56
17.66
16.52
15.61
15.28
15.58
16.22
16.72
16.61
15.69
14.06
12.09
10.27
8.93
8.17
7.79
7.48
6.93
6.00
4.70
3.19
1.63
0.08
-1.52
-3.35
-5.57
-8.28
-11.44
-14.99
-18.78
-22.68
-26.50
-29.85
-32.15
-32.75
-31.15
-27.28
-21.61
-15.04
-8.57
-2.93
1.61
5.25
8.35
11.11
13.45
15.10
15.84
15.70
15.04
14.38
14.03
14.00
13.97
13.58
12.69
11.53
10.64
10.50
11.33
12.87
14.56
15.80
16.15
15.54
14.19
12.43
10.54
8.65
6.80
4.98
3.14
1.28
-0.63
-2.65
-4.78
-6.95
-8.98
-10.68
-11.94
-12.88
-13.79
-15.08
-17.05
-19.72
-22.78
-25.63
-27.57
-28.05
-26.79
-23.86
-19.64
-14.68
-9.53
-4.62
-0.27
3.38
6.24
8.29
9.53
10.03
9.96
9.54
9.01
8.51
8.05
7.55
6.92
6.16
5.36
4.68
4.29
4.26
4.57
5.11
5.75
6.33
6.68
6.68
6.26
5.47
4.49
3.56
2.87
2.50
2.30
2.03
1.46
0.53
-0.67
-1.89
-2.92
-3.68
-4.29
-4.93
-5.83
-7.14
-8.88
-11.04
-13.54
-16.29
-19.15
-21.80
-23.80
-24.64
-23.85
-21.24
-16.93
-11.41
-5.36
0.48
5.56
9.59
12.56
14.62
15.95
16.63
16.63
15.88
14.42
12.47
10.40
8.63
7.40
6.72
6.39
6.14
5.82
5.52
5.53
6.10
7.30
8.83
10.16
10.64
9.89
7.93
5.20
2.42
0.19
-1.15
-1.61
-1.51
-1.27
-1.29
-1.84
-3.02
-4.75
-6.77
-8.67
-10.13
-11.00
-11.43
-11.83
-12.64
-14.13
-16.25
-18.64
-20.75
-22.05
-22.13
-20.73
-17.86
-13.73
-8.76
-3.50
1.48
5.75
9.10
11.46
12.91
13.51
13.35
12.53
11.30
10.00
8.99
8.55
8.71
9.31
10.05
10.63
10.88
10.81
10.52
10.19
9.95
9.87
9.96
10.19
10.47
10.68
10.66
10.26
9.45
8.33
7.13
6.05
5.13
4.19
2.87
0.90
-1.74
-4.77
-7.64
-9.83
-11.07
-11.49
-11.53
-11.81
-12.79
-14.70
-17.39
-20.44
-23.24
-25.17
-25.73
-24.64
-21.98
-18.15
-13.79
-9.59
-6.10
-3.58
-2.03
-1.23
-0.86
-0.68
-0.54
-0.45
-0.49
-0.74
-1.27
-2.06
-3.03
-3.97
-4.60
-4.55
-3.50
-1.28
2.05
6.12
10.36
14.14
17.00
18.76
19.56
19.69
19.43
18.88
17.96
16.49
14.31
11.48
8.29
5.28
3.01
1.86
1.87
2.67
3.61
3.95
3.12
0.86
-2.71
-7.21
-12.11
-16.80
-20.70
-23.31
-24.30
-23.59
-21.39
-18.11
-14.32
-10.55
-7.21
-4.55
-2.67
-1.48
-0.79
-0.36
0.05
0.65
1.53
2.64
3.78
4.63
4.97
4.81
4.51
4.63
5.75
8.06
11.15
14.16
16.10
16.39
15.14
13.09
11.21
10.21
10.19
10.70
11.04
10.67
9.39
7.35
4.82
2.04
-0.86
-3.78
-6.53
-8.87
-10.59
-11.61
-12.17
-12.73
-13.76
-15.54
-17.93
-20.44
-22.29
-22.85
-21.71
-18.95
-14.99
-10.48
-6.05
-2.14
1.11
3.81
6.16
8.30
10.24
11.86
12.93
13.34
13.11
12.38
11.37
10.25
9.13
8.01
6.93
5.95
5.22
4.92
5.18
5.96
7.08
8.20
8.92
8.94
8.19
6.80
5.12
3.46
1.97
0.58
-0.89
-2.57
-4.42
-6.20
-7.61
-8.49
-8.90
-9.13
-9.56
-10.50
-12.08
-14.24
-16.73
-19.25
-21.42
-22.88
-23.33
-22.61
-20.66
-17.64
-13.77
-9.35
-4.66
-0.06
4.11
7.52
9.88
11.06
11.14
10.34
9.04
7.63
6.44
5.68
5.35
5.29
5.18
4.71
3.66
2.02
0.10
-1.59
-2.55
-2.44
-1.24
0.77
3.11
5.28
6.91
7.81
7.95
7.47
6.49
5.20
3.71
2.11
0.50
-1.05
-2.41
-3.49
-4.28
-4.86
-5.41
-6.15
-7.31
-8.98
-11.08
-13.35
-15.38
-16.70
-16.90
-15.78
-13.35
-9.91
-5.91
-1.85
1.88
4.98
7.31
8.81
9.45
9.26
8.33
6.88
5.21
3.69
2.62
2.19
2.36
2.91
3.55
4.02
4.18
4.04
3.70
3.29
2.97
2.89
3.13
3.74
4.60
5.46
5.97
5.86
5.02
3.56
1.78
-0.07
-1.81
-3.38
-4.72
-5.74
-6.29
-6.35
-6.11
-6.02
-6.59
-8.16
-10.71
-13.87
-17.06
-19.64
-21.08
-21.05
-19.36
-16.07
-11.50
-6.24
-0.99
3.55
6.94
9.02
9.98
10.12
9.72
8.96
7.93
6.71
5.48
4.52
4.12
4.44
5.34
6.42
7.14
7.10
6.19
4.60
2.71
0.86
-0.76
-2.10
-3.09
-3.62
-3.54
-2.82
-1.72
-0.69
-0.20
-0.51
-1.49
-2.69
-3.59
-3.89
-3.65
-3.26
-3.24
-4.00
-5.69
-8.19
-11.15
-14.13
-16.63
-18.19
-18.45
-17.19
-14.43
-10.39
-5.54
-0.43
4.36
8.43
11.59
13.88
15.45
16.42
16.80
16.46
15.22
13.11
10.35
7.41
4.81
2.92
1.87
1.52
1.63
1.95
2.29
2.54
2.62
2.46
2.00
1.22
0.18
-1.04
-2.33
-3.62
-4.88
-6.13
-7.45
-8.92
-10.54
-12.26
-13.91
-15.26
-16.06
-16.13
-15.38
-13.91
-11.99
-10.02
-8.46
-7.67
-7.77
-8.61
-9.76
-10.70
-11.00
-10.42
-8.92
-6.66
-3.78
-0.45
3.17
6.93
10.64
14.12
17.16
19.64
21.41
22.35
22.40
21.58
20.10
18.25
16.38
14.75
13.48
12.53
11.76
11.04
10.31
9.54
8.70
7.70
6.48
5.05
3.52
2.11
1.06
0.49
0.35
0.44
0.48
0.13
-0.84
-2.59
-5.03
-7.83
-10.43
-12.25
-12.91
-12.39
-11.11
-9.73
-8.88
-8.99
-10.10
-11.98
-14.16
-16.01
-16.87
-16.15
-13.53
-9.12
-3.53
2.30
7.39
11.08
13.18
13.98
13.95
13.51
12.87
12.05
11.00
9.75
8.39
7.08
5.95
5.07
4.42
3.96
3.64
3.45
3.40
3.49
3.69
3.96
4.23
4.41
4.35
3.97
3.17
1.98
0.55
-0.86
-1.99
-2.69
-2.96
-2.99
-3.07
-3.47
-4.28
-5.38
-6.47
-7.21
-7.32
-6.74
-5.72
-4.77
-4.57
-5.74
-8.54
-12.69
-17.38
-21.41
-23.63
-23.34
-20.58
-16.02
-10.72
-5.62
-1.30
2.12
4.83
7.14
9.19
11.00
12.37
13.01
12.67
11.21
8.75
5.64
2.42
-0.32
-2.11
-2.73
-2.20
-0.76
1.32
3.83
6.61
9.54
12.43
14.99
16.96
18.15
18.51
18.15
17.23
15.90
14.24
12.33
10.23
8.08
6.08
4.41
3.16
2.26
1.56
0.83
-0.10
-1.43
-3.33
-5.94
-9.29
-13.21
-17.29
-20.92
-23.45
-24.33
-23.35
-20.69
-16.90
-12.73
-8.87
-5.78
-3.48
-1.65
0.28
2.77
6.02
9.85
13.84
17.46
20.31
22.18
23.07
23.16
22.68
21.86
20.87
19.82
18.68
17.31
15.54
13.24
10.52
7.69
5.22
3.47
2.59
2.38
2.46
2.45
2.13
1.51
0.68
-0.30
-1.49
-3.00
-4.86
-6.91
-8.80
-10.24
-11.04
-11.32
-11.48
-12.02
-13.34
-15.62
-18.73
-22.27
-25.68
-28.32
-29.65
-29.27
-27.12
-23.44
-18.74
-13.67
-8.84
-4.73
-1.49
0.94
2.82
4.44
6.02
7.66
9.35
11.02
12.51
13.65
14.19
13.93
12.79
10.90
8.63
6.52
5.09
4.70
5.46
7.24
9.69
12.41
14.96
16.95
18.11
18.34
17.76
16.64
15.24
13.78
12.29
10.65
8.75
6.54
4.14
1.75
-0.40
-2.19
-3.54
-4.50
-5.13
-5.58
-6.08
-6.96
-8.53
-10.95
-14.11
-17.54
-20.54
-22.42
-22.71
-21.29
-18.43
-14.61
-10.36
-6.17
-2.41
0.72
3.16
5.02
6.53
7.93
9.34
10.65
11.57
11.80
11.25
10.14
8.94
8.16
8.06
8.55
9.28
9.82
9.96
9.74
9.40
9.18
9.17
9.25
9.22
8.87
8.09
6.92
5.45
3.85
2.30
0.97
-0.03
-0.72
-1.21
-1.69
-2.32
-3.17
-4.16
-5.18
-6.13
-7.01
-7.93
-9.02
-10.35
-11.97
-13.92
-16.20
-18.76
-21.37
-23.60
-24.86
-24.59
-22.48
-18.65
-13.62
-8.17
-3.04
1.25
4.57
7.03
8.91
10.42
11.69
12.72
13.54
14.19
14.76
15.32
15.85
16.23
16.22
15.59
14.26
12.31
9.96
7.55
5.44
3.98
3.38
3.70
4.74
6.18
7.56
8.51
8.82
8.52
7.81
6.93
6.01
5.07
4.04
2.86
1.66
0.58
-0.19
-0.60
-0.71
-0.66
-0.57
-0.42
-0.16
0.26
0.70
0.81
0.10
-1.85
-5.16
-9.55
-14.38
-18.88
-22.36
-24.33
-24.60
-23.15
-20.15
-15.88
-10.80
-5.51
-0.70
3.11
5.65
7.03
7.66
8.02
8.46
9.00
9.46
9.57
9.25
8.62
7.99
7.65
7.73
8.10
8.52
8.73
8.67
8.47
8.39
8.60
9.12
9.68
9.97
9.68
8.75
7.30
5.66
4.14
2.94
2.07
1.40
0.72
-0.06
-0.87
-1.49
-1.71
-1.51
-1.16
-1.14
-1.90
-3.65
-6.14
-8.76
-10.82
-11.95
-12.26
-12.37
-13.03
-14.65
-17.10
-19.68
-21.43
-21.56
-19.77
-16.29
-11.80
-7.07
-2.72
0.98
4.07
6.79
9.34
11.80
14.07
15.97
17.34
18.20
18.67
18.89
18.87
18.52
17.63
16.14
14.17
12.04
10.12
8.72
7.94
7.73
7.91
8.31
8.71
8.84
8.49
7.51
5.91
3.89
1.76
-0.16
-1.72
-2.95
-4.06
-5.28
-6.77
-8.49
-10.26
-11.80
-12.88
-13.40
-13.40
-13.05
-12.60
-12.30
-12.46
-13.30
-14.96
-17.33
-20.02
-22.39
-23.73
-23.52
-21.56
-18.09
-13.57
-8.56
-3.49
1.36
5.78
9.54
12.36
13.96
14.19
13.19
11.37
9.40
7.93
7.41
7.97
9.28
10.78
11.80
11.88
10.89
9.06
6.95
5.12
3.98
3.60
3.71
3.90
3.78
3.16
2.11
0.85
-0.36
-1.36
-2.19
-2.92
-3.67
-4.47
-5.23
-5.80
-6.05
-5.91
-5.45
-4.91
-4.68
-5.17
-6.67
-9.19
-12.34
-15.48
-17.84
-18.80
-18.07
-15.72
-12.18
-7.97
-3.63
0.41
3.86
6.55
8.43
9.51
9.87
9.57
8.62
6.95
4.47
1.13
-2.89
-7.13
-10.87
-13.39
-14.23
-13.31
-11.01
-7.96
-4.79
-1.97
0.28
1.90
2.98
3.65
4.11
4.63
5.43
6.54
7.71
8.47
8.39
7.26
5.25
2.86
0.68
-0.87
-1.68
-1.95
-2.00
-2.11
-2.41
-2.87
-3.39
-3.90
-4.35
-4.68
-4.84
-4.68
-4.10
-3.07
-1.67
-0.11
1.35
2.48
3.24
3.78
4.29
4.92
5.65
6.26
6.44
5.97
4.88
3.41
1.96
0.83
0.18
-0.04
0.03
0.23
0.49
0.84
1.26
1.69
2.01
2.11
1.92
1.49
0.94
0.43
0.01
-0.31
-0.61
-1.01
-1.57
-2.31
-3.17
-4.10
-5.09
-6.23
-7.62
-9.32
-11.28
-13.39
-15.48
-17.36
-18.89
-19.89
-20.25
-19.82
-18.61
-16.78
-14.64
-12.55
-10.75
-9.18
-7.54
-5.50
-2.97
-0.28
1.85
2.70
1.92
-0.16
-2.67
-4.51
-4.90
-3.61
-1.06
2.00
4.82
6.94
8.25
8.93
9.19
9.27
9.31
9.43
9.72
10.29
11.15
12.25
13.32
14.04
14.07
13.17
11.31
8.67
5.55
2.31
-0.73
-3.27
-5.10
-6.12
-6.48
-6.58
-7.04
-8.49
-11.26
-15.17
-19.53
-23.35
-25.68
-25.98
-24.29
-21.16
-17.39
-13.71
-10.54
-7.95
-5.75
-3.60
-1.24
1.46
4.43
7.45
10.19
12.28
13.46
13.63
13.02
12.06
11.26
11.01
11.40
12.16
12.84
12.95
12.20
10.52
8.06
5.07
1.81
-1.43
-4.29
-6.42
-7.51
-7.55
-6.89
-6.20
-6.14
-7.08
-8.85
-10.80
-12.15
-12.36
-11.33
-9.35
-6.81
-4.01
-1.10
1.83
4.54
6.61
7.67
7.65
6.86
6.00
5.80
6.81
9.13
12.50
16.39
20.14
23.05
24.53
24.20
22.05
18.46
14.20
10.11
6.80
4.52
3.13
2.24
1.51
0.78
0.16
-0.16
-0.17
-0.08
-0.33
-1.36
-3.26
-5.67
-7.90
-9.20
-9.16
-7.86
-5.82
-3.74
-2.17
-1.37
-1.33
-1.88
-2.88
-4.19
-5.74
-7.45
-9.24
-11.18
-13.33
-15.75
-18.33
-20.78
-22.77
-24.05
-24.57
-24.50
-24.01
-23.11
-21.63
-19.32
-16.03
-11.97
-7.61
-3.56
-0.27
2.12
3.74
4.92
5.93
6.90
7.81
8.54
9.01
9.21
9.15
8.93
8.63
8.27
7.82
7.23
6.51
5.78
5.37
5.59
6.63
8.30
10.05
11.17
11.13
9.86
7.77
5.53
3.67
2.38
1.48
0.63
-0.34
-1.40
-2.36
-3.07
-3.61
-4.31
-5.59
-7.79
-11.01
-14.96
-19.09
-22.62
-24.76
-24.95
-23.09
-19.55
-15.04
-10.39
-6.18
-2.65
0.36
3.14
5.93
8.77
11.50
13.79
15.37
16.15
16.17
15.64
14.79
13.81
12.82
11.89
11.07
10.45
10.13
10.18
10.55
11.06
11.41
11.28
10.47
8.97
7.02
5.07
3.53
2.69
2.52
2.73
2.90
2.60
1.60
-0.11
-2.37
-4.83
-7.12
-8.87
-9.95
-10.45
-10.78
-11.56
-13.35
-16.41
-20.53
-25.06
-29.09
-31.83
-32.77
-31.81
-29.12
-25.03
-19.82
-13.80
-7.28
-0.68
5.46
10.65
14.58
17.23
18.80
19.68
20.17
20.44
20.50
20.34
20.00
19.57
19.18
18.92
18.81
18.78
18.80
18.82
18.81
18.63
18.10
17.04
15.38
13.25
11.00
9.02
7.57
6.67
6.07
5.37
4.21
2.50
0.36
-1.89
-3.93
-5.56
-6.79
-7.76
-8.72
-9.95
-11.66
-13.98
-16.92
-20.31
-23.81
-26.91
-29.01
-29.55
-28.19
-24.88
-19.98
-14.15
-8.21
-2.89
1.35
4.44
6.65
8.40
10.04
11.80
13.71
15.67
17.51
19.06
20.19
20.82
20.97
20.75
20.39
20.04
19.78
19.45
18.77
17.41
15.17
12.06
8.32
4.42
0.90
-1.71
-3.15
-3.50
-3.17
-2.72
-2.65
-3.10
-3.91
-4.69
-5.11
-5.05
-4.73
-4.56
-4.98
-6.31
-8.74
-12.29
-16.87
-22.12
-27.50
-32.20
-35.41
-36.51
-35.32
-32.10
-27.47
-22.14
-16.75
-11.75
-7.41
-3.87
-1.19
0.61
1.59
1.86
1.55
0.79
-0.29
-1.43
-2.26
-2.30
-1.11
1.50
5.40
10.17
15.23
20.10
24.41
27.97
30.62
32.16
32.45
31.48
29.48
26.93
24.37
22.18
20.44
18.93
17.32
15.35
13.03
10.56
8.27
6.36
4.81
3.43
1.92
-0.03
-2.64
-6.02
-10.11
-14.61
-19.03
-22.69
-24.95
-25.35
-23.75
-20.37
-15.68
-10.33
-5.00
-0.27
3.43
5.93
7.36
8.04
8.36
8.64
8.96
9.25
9.36
9.20
8.82
8.38
8.04
7.89
7.94
8.11
8.29
8.38
8.31
8.04
7.57
6.94
6.20
5.38
4.53
3.69
2.89
2.19
1.61
1.15
0.77
0.37
-0.17
-0.91
-1.79
-2.69
-3.42
-3.98
-4.59
-5.76
-8.10
-12.03
-17.52
-23.97
-30.30
-35.20
-37.57
-36.76
-32.80
-26.29
-18.27
-9.92
-2.27
3.99
8.64
11.86
14.02
15.42
16.21
16.36
15.85
14.86
13.76
13.03
12.97
13.61
14.67
15.73
16.48
16.79
16.78
16.63
16.49
16.39
16.18
15.71
14.84
13.56
12.03
10.51
9.21
8.21
7.34
6.26
4.60
2.19
-0.83
-3.98
-6.71
-8.59
-9.56
-9.95
-10.33
-11.29
-13.21
-16.13
-19.72
-23.42
-26.62
-28.78
-29.48
-28.51
-25.85
-21.72
-16.50
-10.72
-4.95
0.38
4.95
8.63
11.37
13.12
13.87
13.69
12.76
11.45
10.19
9.27
8.78
8.55
8.28
7.74
6.92
5.99
5.26
4.95
5.18
5.88
6.87
7.97
8.97
9.72
10.11
10.10
9.70
8.94
7.80
6.26
4.28
1.94
-0.45
-2.46
-3.70
-4.09
-3.94
-3.96
-4.85
-7.03
-10.33
-14.16
-17.72
-20.30
-21.53
-21.32
-19.71
-16.87
-12.95
-8.23
-3.14
1.88
6.50
10.54
14.01
16.80
18.56
18.71
16.78
12.77
7.34
1.67
-3.00
-5.93
-7.12
-7.11
-6.60
-5.96
-5.05
-3.49
-1.03
2.18
5.61
8.59
10.65
11.69
11.91
11.60
10.91
9.82
8.18
5.96
3.31
0.57
-1.91
-3.88
-5.30
-6.33
-7.30
-8.60
-10.58
-13.42
-17.04
-21.05
-24.78
-27.43
-28.36
-27.27
-24.24
-19.76
-14.51
-9.14
-4.17
0.11
3.56
6.17
8.00
9.17
9.81
10.05
10.05
9.91
9.78
9.72
9.73
9.71
9.48
8.89
7.86
6.47
4.93
3.54
2.51
1.93
1.76
1.78
1.76
1.44
0.72
-0.38
-1.66
-2.86
-3.72
-4.13
-4.18
-4.13
-4.33
-5.08
-6.57
-8.86
-11.82
-15.18
-18.41
-20.87
-21.89
-21.04
-18.28
-14.03
-9.02
-3.95
0.72
4.84
8.51
11.83
14.72
16.90
18.02
17.89
16.60
14.55
12.34
10.60
9.77
9.97
10.97
12.23
13.20
13.48
13.03
12.13
11.23
10.65
10.49
10.53
10.45
9.93
8.86
7.35
5.57
3.76
2.02
0.34
-1.38
-3.32
-5.72
-8.72
-12.35
-16.42
-20.52
-24.07
-26.43
-27.13
-25.95
-23.08
-19.03
-14.49
-10.17
-6.51
-3.67
-1.50
0.32
2.11
4.11
6.40
8.85
11.22
13.23
14.71
15.72
16.54
17.61
19.38
22.08
25.59
29.41
32.77
34.80
34.83
32.58
28.33
22.88
17.36
12.88
10.17
9.35
9.92
11.00
11.64
11.08
8.95
5.28
0.41
-5.05
-10.47
-15.27
-19.15
-22.14
-24.62
-27.07
-29.89
-33.13
-36.36
-38.80
-39.50
-37.68
-32.99
-25.59
-16.15
-5.69
4.59
13.45
19.86
23.13
23.18
20.51
16.16
11.43
7.48
4.98
4.02
4.16
4.73
5.16
5.23
5.06
4.95
5.08
5.39
5.64
5.46
4.65
3.28
1.64
0.09
-1.14
-2.04
-2.82
-3.75
-5.02
-6.59
-8.22
-9.50
-10.10
-9.92
-9.25
-8.62
-8.64
-9.71
-11.80
-14.44
-16.90
-18.43
-18.55
-17.11
-14.28
-10.43
-5.95
-1.18
3.60
8.20
12.40
15.98
18.68
20.28
20.71
20.07
18.62
16.69
14.58
12.52
10.73
9.36
8.54
8.25
8.32
8.49
8.52
8.32
7.96
7.59
7.29
7.00
6.54
5.81
4.88
3.96
3.30
2.97
2.80
2.43
1.52
-0.01
-1.97
-3.89
-5.29
-5.83
-5.50
-4.64
-3.77
-3.50
-4.31
-6.42
-9.67
-13.57
-17.32
-19.98
-20.79
-19.28
-15.51
-10.03
-3.75
2.33
7.36
10.85
12.74
13.23
12.75
11.68
10.26
8.67
6.99
5.30
3.67
2.20
0.95
0.04
-0.47
-0.45
0.11
1.14
2.44
3.68
4.54
4.76
4.29
3.26
1.96
0.73
-0.12
-0.45
-0.33
-0.02
0.12
-0.22
-1.17
-2.60
-4.24
-5.73
-6.80
-7.44
-7.83
-8.31
-9.24
-10.81
-13.02
-15.55
-17.91
-19.51
-19.85
-18.67
-16.04
-12.26
-7.81
-3.22
1.10
4.88
8.02
10.48
12.26
13.36
13.74
13.42
12.47
11.08
9.47
7.88
6.49
5.37
4.47
3.67
2.88
1.99
1.04
0.07
-0.76
-1.30
-1.45
-1.19
-0.65
-0.07
0.27
0.11
-0.80
-2.61
-5.31
-8.71
-12.38
-15.75
-18.36
-19.94
-20.64
-20.87
-21.06
-21.40
-21.69
-21.48
-20.30
-17.88
-14.36
-10.08
-5.53
-1.10
2.95
6.43
9.21
11.23
12.54
13.29
13.64
13.70
13.42
12.73
11.60
10.19
8.80
7.72
7.04
6.59
6.11
5.41
4.58
3.89
3.64
3.87
4.28
4.37
3.69
2.15
-0.05
-2.47
-4.74
-6.59
-7.98
-8.96
-9.66
-10.26
-10.97
-12.06
-13.70
-15.91
-18.52
-21.17
-23.40
-24.76
-24.85
-23.42
-20.42
-16.07
-10.83
-5.33
-0.13
4.33
7.91
10.70
12.93
14.87
16.63
18.18
19.35
20.01
20.11
19.74
19.02
18.01
16.54
14.35
11.27
7.43
3.39
-0.08
-2.28
-2.95
-2.42
-1.42
-0.86
-1.45
-3.52
-7.01
-11.59
-16.71
-21.76
-26.04
-28.87
-29.69
-28.20
-24.56
-19.45
-14.03
-9.65
-7.37
-7.57
-9.70
-12.43
-14.21
-13.96
-11.53
-7.73
-3.91
-1.15
0.25
0.91
1.93
4.25
8.07
12.74
17.11
20.10
21.20
20.60
18.94
16.97
15.18
13.74
12.57
11.59
10.80
10.33
10.28
10.66
11.24
11.61
11.38
10.31
8.43
6.07
3.70
1.65
0.10
-1.05
-2.04
-3.07
-4.21
-5.39
-6.41
-7.19
-7.80
-8.51
-9.70
-11.63
-14.32
-17.42
-20.34
-22.39
-23.03
-22.06
-19.62
-16.07
-11.91
-7.58
-3.44
0.23
3.28
5.59
7.18
8.06
8.30
7.96
7.15
6.07
5.04
4.44
4.53
5.38
6.72
8.08
8.97
9.09
8.49
7.48
6.53
5.99
5.93
6.16
6.30
6.07
5.43
4.69
4.31
4.66
5.76
7.19
8.28
8.31
6.82
3.75
-0.69
-5.98
-11.32
-15.75
-18.22
-17.93
-14.71
-9.22
-3.01
1.87
3.57
1.11
-5.12
-13.47
-21.32
-26.03
-25.57
-19.15
-7.47
7.57
23.30
36.95
46.31
50.05
47.94
40.82
30.30
18.33
6.77
-3.08
-10.57
-15.63
-18.52
-19.60
-19.22
-17.63
-15.15
-12.03
-8.57
-4.93
-1.29
2.07
4.74
6.15
5.83
3.71
0.24
-3.66
-6.94
-8.90
-9.41
-8.91
-8.14
-7.80
-8.32
-9.84
-12.29
-15.45
-18.96
-22.27
-24.68
-25.48
-24.21
-20.86
-15.91
-10.18
-4.49
0.53
4.60
7.68
9.88
11.29
11.94
11.82
10.98
9.56
7.83
6.18
4.91
4.22
4.14
4.55
5.32
6.39
7.78
9.60
11.86
14.39
16.88
18.94
20.24
20.65
20.21
19.03
17.26
14.98
12.23
9.10
5.75
2.45
-0.50
-2.85
-4.55
-5.69
-6.50
-7.24
-8.17
-9.47
-11.27
-13.51
-15.96
-18.19
-19.67
-19.97
-18.89
-16.59
-13.49
-10.13
-6.90
-4.04
-1.61
0.41
2.04
3.27
4.13
4.67
4.99
5.19
5.35
5.54
5.80
6.10
6.41
6.65
6.72
6.62
6.34
5.93
5.38
4.71
3.89
2.95
1.96
1.03
0.30
-0.23
-0.49
-0.47
-0.08
0.81
2.22
3.97
5.60
6.57
6.38
4.95
2.57
-0.15
-2.71
-4.91
-7.02
-9.50
-12.69
-16.45
-20.11
-22.73
-23.50
-22.13
-18.92
-14.57
-9.83
-5.29
-1.24
2.29
5.36
8.00
10.20
11.85
12.81
13.00
12.43
11.33
10.03
8.86
8.02
7.52
7.21
6.93
6.63
6.42
6.51
7.11
8.27
9.91
11.76
13.47
14.65
14.97
14.21
12.32
9.45
5.88
2.06
-1.60
-4.67
-6.86
-8.09
-8.47
-8.35
-8.22
-8.56
-9.70
-11.68
-14.25
-16.98
-19.26
-20.54
-20.35
-18.47
-14.96
-10.23
-4.93
0.15
4.31
7.13
8.54
8.71
8.02
6.77
5.24
3.65
2.20
1.14
0.67
0.88
1.68
2.79
3.89
4.80
5.50
6.16
6.92
7.80
8.62
9.14
9.20
8.84
8.31
7.91
7.83
8.02
8.27
8.35
8.06
7.31
6.04
4.23
1.93
-0.73
-3.42
-5.73
-7.34
-8.19
-8.59
-9.12
-10.38
-12.70
-15.86
-19.12
-21.43
-21.89
-20.09
-16.31
-11.42
-6.54
-2.54
0.20
1.85
2.88
3.78
4.79
5.86
6.81
7.44
7.69
7.58
7.19
6.58
5.78
4.88
4.00
3.37
3.22
3.69
4.76
6.24
7.78
9.00
9.61
9.44
8.48
6.87
4.78
2.44
0.07
-2.06
-3.74
-4.87
-5.51
-5.87
-6.19
-6.63
-7.21
-7.83
-8.38
-8.78
-9.14
-9.69
-10.64
-12.10
-13.99
-16.03
-17.89
-19.26
-19.90
-19.61
-18.24
-15.66
-11.87
-7.04
-1.58
3.93
8.91
13.08
16.51
19.54
22.47
25.31
27.62
28.75
28.30
26.32
23.44
20.53
18.31
17.01
16.37
15.94
15.34
14.55
13.78
13.25
12.95
12.62
11.89
10.52
8.54
6.22
3.87
1.73
-0.11
-1.63
-2.85
-3.78
-4.49
-5.13
-6.01
-7.42
-9.54
-12.26
-15.21
-17.88
-19.81
-20.81
-21.01
-20.75
-20.51
-20.72
-21.69
-23.43
-25.63
-27.66
-28.71
-28.07
-25.35
-20.70
-14.72
-8.28
-2.19
3.05
7.27
10.55
13.03
14.74
15.65
15.74
15.16
14.32
13.75
13.97
15.32
17.76
20.91
24.03
26.30
26.97
25.69
22.55
18.13
13.25
8.66
4.77
1.64
-0.93
-3.09
-4.81
-5.93
-6.32
-6.06
-5.47
-4.89
-4.47
-4.09
-3.53
-2.70
-1.82
-1.34
-1.70
-2.95
-4.71
-6.34
-7.31
-7.45
-7.07
-6.74
-7.09
-8.48
-10.92
-14.08
-17.42
-20.32
-22.20
-22.60
-21.31
-18.37
-14.14
-9.19
-4.21
0.18
3.59
5.94
7.44
8.51
9.50
10.61
11.80
12.76
13.08
12.47
10.87
8.57
6.10
4.15
3.23
3.60
5.12
7.35
9.78
11.94
13.56
14.50
14.75
14.32
13.29
11.74
9.82
7.71
5.55
3.50
1.68
0.25
-0.65
-0.83
-0.23
1.09
2.92
4.86
6.49
7.42
7.37
6.30
4.34
1.73
-1.22
-4.28
-7.30
-10.20
-12.87
-15.16
-16.80
-17.50
-17.05
-15.44
-12.85
-9.64
-6.15
-2.61
0.85
4.10
6.85
8.63
8.91
7.40
4.29
0.24
-3.78
-6.92
-8.66
-9.00
-8.18
-6.55
-4.34
-1.63
1.51
4.90
8.24
11.12
13.21
14.32
14.51
13.94
12.82
11.35
9.71
8.05
6.55
5.35
4.56
4.12
3.89
3.64
3.22
2.61
1.89
1.16
0.45
-0.39
-1.61
-3.49
-6.20
-9.71
-13.78
-17.99
-21.73
-24.38
-25.39
-24.51
-21.85
-17.92
-13.42
-9.02
-5.14
-1.87
0.87
3.20
5.08
6.34
6.79
6.38
5.27
3.86
2.58
1.71
1.37
1.40
1.54
1.59
1.41
1.01
0.50
0.08
-0.04
0.33
1.33
2.95
5.05
7.40
9.70
11.64
12.91
13.29
12.65
11.04
8.66
5.82
2.86
0.04
-2.54
-4.82
-6.82
-8.60
-10.13
-11.47
-12.73
-14.16
-16.03
-18.55
-21.71
-25.09
-27.93
-29.31
-28.54
-25.43
-20.48
-14.63
-8.96
-4.23
-0.65
2.00
4.14
6.08
7.91
9.49
10.67
11.37
11.62
11.53
11.22
10.81
10.46
10.35
10.66
11.52
12.87
14.46
15.93
16.87
17.00
16.27
14.89
13.19
11.53
10.07
8.76
7.39
5.77
3.82
1.69
-0.38
-2.16
-3.53
-4.54
-5.37
-6.23
-7.30
-8.67
-10.42
-12.59
-15.21
-18.26
-21.54
-24.68
-27.13
-28.33
-27.84
-25.68
-22.24
-18.16
-14.14
-10.55
-7.48
-4.74
-2.18
0.17
2.06
3.17
3.35
2.78
1.94
1.54
2.23
4.29
7.53
11.22
14.42
16.29
16.39
14.83
12.15
8.97
5.73
2.61
-0.31
-2.75
-4.11
-3.64
-0.80
4.31
10.78
17.18
22.04
24.42
24.17
21.84
18.30
14.34
10.39
6.46
2.40
-1.94
-6.52
-11.13
-15.43
-19.07
-21.72
-23.17
-23.28
-22.04
-19.62
-16.34
-12.69
-9.18
-6.26
-4.26
-3.29
-3.23
-3.77
-4.50
-5.03
-5.12
-4.75
-4.08
-3.33
-2.75
-2.48
-2.52
-2.70
-2.70
-2.17
-0.75
1.71
5.10
8.92
12.51
15.18
16.53
16.55
15.61
14.20
12.73
11.35
9.97
8.37
6.41
4.12
1.72
-0.46
-2.15
-3.20
-3.59
-3.48
-3.17
-3.06
-3.63
-5.25
-8.10
-12.02
-16.54
-20.90
-24.30
-26.03
-25.72
-23.44
-19.64
-15.06
-10.45
-6.41
-3.19
-0.78
1.06
2.57
3.92
5.11
6.08
6.76
7.14
7.35
7.55
7.89
8.41
9.02
9.61
10.08
10.50
10.99
11.74
12.80
14.05
15.25
16.10
16.42
16.13
15.29
14.04
12.57
10.98
9.35
7.65
5.76
3.57
1.02
-1.78
-4.56
-7.02
-8.94
-10.31
-11.42
-12.69
-14.54
-17.23
-20.66
-24.37
-27.65
-29.68
-29.83
-27.87
-24.09
-19.23
-14.19
-9.70
-6.13
-3.45
-1.40
0.17
1.21
1.50
0.92
-0.33
-1.66
-2.29
-1.64
0.45
3.60
7.23
10.82
14.24
17.60
21.09
24.68
27.96
30.38
31.43
30.89
28.84
25.61
21.61
17.30
13.09
9.36
6.42
4.45
3.43
3.16
3.29
3.48
3.37
2.76
1.49
-0.46
-3.10
-6.44
-10.52
-15.38
-21.01
-27.08
-32.98
-37.75
-40.41
-40.27
-37.19
-31.70
-24.83
-17.73
-11.34
-6.14
-2.18
0.83
3.23
5.37
7.46
9.57
11.67
13.62
15.21
16.20
16.40
15.66
14.03
11.78
9.48
7.90
7.82
9.71
13.48
18.41
23.32
27.04
28.81
28.47
26.48
23.49
20.18
16.96
14.01
11.37
9.01
6.90
4.93
3.02
1.05
-1.03
-3.18
-5.31
-7.36
-9.32
-11.24
-13.24
-15.48
-18.05
-20.97
-24.16
-27.33
-30.06
-31.78
-31.97
-30.34
-26.95
-22.31
-17.29
-12.78
-9.39
-7.17
-5.65
-4.06
-1.77
1.44
5.23
8.98
12.08
14.28
15.72
16.85
18.12
19.73
21.55
23.18
24.18
24.22
23.30
21.67
19.77
18.12
17.07
16.77
17.08
17.69
18.20
18.29
17.85
16.93
15.65
14.07
12.13
9.64
6.39
2.36
-2.24
-7.00
-11.41
-15.05
-17.75
-19.52
-20.56
-21.13
-21.45
-21.68
-21.91
-22.09
-22.04
-21.51
-20.17
-17.82
-14.49
-10.50
-6.34
-2.50
0.76
3.45
5.80
8.08
10.40
12.63
14.51
15.75
16.31
16.34
16.17
16.14
16.44
16.96
17.44
17.55
17.09
16.07
14.72
13.35
12.14
11.12
10.15
9.00
7.57
5.92
4.22
2.67
1.39
0.38
-0.48
-1.33
-2.33
-3.53
-4.96
-6.52
-8.03
-9.24
-9.94
-9.99
-9.44
-8.54
-7.68
-7.33
-7.86
-9.48
-12.15
-15.61
-19.32
-22.61
-24.69
-24.91
-22.96
-18.98
-13.61
-7.69
-2.02
2.86
6.75
9.69
11.80
13.18
13.93
14.14
14.02
13.78
13.61
13.55
13.56
13.59
13.67
13.88
14.24
14.65
14.89
14.77
14.25
13.50
12.77
12.20
11.73
11.06
9.79
7.69
4.80
1.48
-1.75
-4.42
-6.22
-7.06
-7.02
-6.29
-5.15
-4.00
-3.26
-3.32
-4.38
-6.41
-9.14
-12.14
-14.93
-17.03
-17.98
-17.38
-15.02
-10.98
-5.74
-0.04
5.21
9.35
12.11
13.58
14.08
13.85
12.94
11.26
8.83
5.90
3.03
0.76
-0.61
-1.14
-1.22
-1.32
-1.69
-2.30
-2.88
-3.19
-3.18
-3.00
-2.90
-3.06
-3.53
-4.18
-4.87
-5.51
-6.12
-6.78
-7.56
-8.46
-9.39
-10.19
-10.73
-11.00
-11.13
-11.40
-12.15
-13.64
-15.99
-19.01
-22.22
-24.90
-26.29
-25.86
-23.45
-19.37
-14.33
-9.18
-4.66
-1.12
1.48
3.52
5.43
7.48
9.64
11.68
13.27
14.23
14.62
14.69
14.70
14.81
15.00
15.09
14.92
14.44
13.72
12.90
12.11
11.39
10.71
10.00
9.23
8.39
7.47
6.53
5.55
4.50
3.30
1.87
0.12
-1.94
-4.22
-6.58
-8.87
-10.92
-12.67
-14.11
-15.34
-16.52
-17.91
-19.70
-21.97
-24.47
-26.69
-27.93
-27.63
-25.61
-22.16
-17.88
-13.41
-9.20
-5.41
-2.03
0.91
3.29
4.96
5.86
6.18
6.29
6.63
7.51
9.04
11.13
13.57
16.11
18.50
20.45
21.75
22.29
22.08
21.25
19.96
18.37
16.55
14.57
12.59
10.85
9.69
9.40
10.07
11.46
12.95
13.69
12.88
10.02
5.18
-0.97
-7.36
-12.92
-16.90
-19.11
-19.93
-20.07
-20.26
-21.05
-22.66
-24.97
-27.55
-29.73
-30.74
-29.87
-26.69
-21.28
-14.28
-6.79
-0.00
5.06
7.97
8.94
8.72
8.29
8.38
9.23
10.61
12.00
13.02
13.68
14.27
15.18
16.53
18.05
19.23
19.59
18.99
17.70
16.28
15.22
14.74
14.66
14.57
14.11
13.11
11.73
10.34
9.29
8.73
8.57
8.49
8.11
7.17
5.60
3.48
1.01
-1.60
-4.18
-6.58
-8.71
-10.57
-12.23
-13.85
-15.60
-17.65
-20.10
-22.92
-25.93
-28.79
-31.05
-32.26
-32.10
-30.52
-27.73
-24.12
-20.08
-15.86
-11.54
-7.10
-2.60
1.79
5.77
9.07
11.56
13.37
14.71
15.80
16.70
17.26
17.26
16.55
15.16
13.30
11.28
9.35
7.71
6.50
5.81
5.74
6.24
7.11
7.93
8.30
7.92
6.79
5.15
3.27
1.35
-0.67
-2.90
-5.47
-8.26
-10.99
-13.30
-14.92
-15.83
-16.08
-15.82
-15.07
-13.82
-12.10
-10.03
-7.85
-5.77
-3.89
-2.13
-0.35
1.57
3.54
5.33
6.71
7.57
8.07
8.49
9.09
9.91
10.80
11.47
11.72
11.57
11.22
10.97
11.01
11.30
11.60
11.63
11.18
10.21
8.81
7.12
5.26
3.31
1.35
-0.51
-2.08
-3.25
-3.96
-4.30
-4.44
-4.51
-4.56
-4.49
-4.23
-3.74
-3.12
-2.60
-2.43
-2.84
-3.94
-5.79
-8.34
-11.51
-15.08
-18.71
-21.91
-24.14
-24.98
-24.30
-22.27
-19.27
-15.70
-11.87
-7.89
-3.80
0.32
4.15
7.26
9.14
9.55
8.57
6.67
4.45
2.44
0.92
-0.08
-0.63
-0.80
-0.60
-0.00
0.89
1.84
2.49
2.47
1.67
0.21
-1.48
-2.90
-3.69
-3.71
-3.08
-2.12
-1.19
-0.49
-0.08
0.17
0.50
1.09
2.01
3.15
4.29
5.12
5.33
4.77
3.37
1.23
-1.51
-4.65
-7.98
-11.20
-13.92
-15.69
-16.12
-15.13
-12.89
-9.87
-6.58
-3.42
-0.58
1.87
3.88
5.34
6.16
6.32
5.98
5.39
4.83
4.42
4.17
4.09
4.20
4.59
5.32
6.31
7.34
8.20
8.80
9.26
9.80
10.47
11.09
11.32
10.81
9.59
8.01
6.59
5.70
5.33
5.11
4.59
3.52
2.00
0.39
-0.96
-2.02
-3.03
-4.44
-6.61
-9.59
-13.17
-16.90
-20.25
-22.79
-24.18
-24.27
-23.05
-20.71
-17.52
-13.83
-9.95
-6.16
-2.61
0.62
3.50
6.04
8.27
10.20
11.74
12.82
13.30
13.11
12.31
11.13
9.84
8.73
7.98
7.64
7.67
7.94
8.31
8.61
8.69
8.43
7.79
6.84
5.73
4.66
3.75
2.99
2.29
1.52
0.61
-0.42
-1.51
-2.56
-3.58
-4.59
-5.62
-6.64
-7.49
-8.00
-8.09
-7.82
-7.45
-7.30
-7.75
-9.12
-11.59
-15.16
-19.54
-24.17
-28.26
-31.02
-31.87
-30.52
-27.11
-22.06
-16.02
-9.66
-3.60
1.70
6.04
9.44
12.16
14.49
16.60
18.37
19.50
19.69
18.92
17.59
16.36
15.89
16.44
17.72
19.02
19.55
18.86
17.07
14.79
12.72
11.33
10.59
10.11
9.37
8.08
6.35
4.55
3.10
2.16
1.58
0.94
-0.18
-1.97
-4.23
-6.49
-8.21
-9.02
-8.90
-8.14
-7.20
-6.50
-6.30
-6.71
-7.74
-9.36
-11.46
-13.85
-16.16
-17.93
-18.64
-17.97
-15.84
-12.45
-8.24
-3.71
0.63
4.44
7.51
9.78
11.19
11.79
11.66
10.95
9.97
9.07
8.57
8.61
9.08
9.73
10.29
10.56
10.51
10.17
9.59
8.84
8.01
7.28
6.85
6.88
7.27
7.73
7.89
7.49
6.57
5.51
4.78
4.72
5.38
6.40
7.25
7.37
6.31
3.98
0.53
-3.56
-7.63
-11.02
-13.26
-14.28
-14.44
-14.44
-14.97
-16.49
-18.99
-21.97
-24.64
-26.23
-26.19
-24.44
-21.28
-17.30
-13.18
-9.41
-6.23
-3.59
-1.30
0.85
2.91
4.82
6.38
7.49
8.19
8.65
9.08
9.67
10.49
11.48
12.48
13.28
13.70
13.59
12.96
11.97
10.91
10.12
9.89
10.29
11.15
12.14
12.88
13.09
12.72
11.95
11.01
10.14
9.35
8.50
7.36
5.77
3.75
1.54
-0.56
-2.36
-3.92
-5.55
-7.69
-10.68
-14.56
-19.08
-23.67
-27.66
-30.33
-31.08
-29.56
-25.84
-20.44
-14.23
-8.22
-3.24
0.28
2.39
3.40
3.66
3.42
2.90
2.37
2.27
3.11
5.18
8.31
11.88
15.09
17.33
18.42
18.65
18.45
18.07
17.48
16.50
15.07
13.47
12.19
11.60
11.63
11.73
11.15
9.38
6.50
3.19
0.36
-1.33
-1.90
-1.97
-2.36
-3.61
-5.74
-8.24
-10.63
-12.74
-14.85
-17.43
-20.72
-24.38
-27.51
-29.03
-28.21
-25.00
-20.15
-14.76
-9.85
-6.03
-3.30
-1.28
0.54
2.44
4.42
6.26
7.72
8.82
9.76
10.85
12.24
13.76
14.95
15.33
14.64
13.06
11.06
9.21
7.91
7.26
7.11
7.19
7.34
7.53
7.83
8.32
8.98
9.73
10.35
10.63
10.36
9.42
7.82
5.73
3.42
1.22
-0.66
-2.23
-3.71
-5.40
-7.53
-10.15
-13.02
-15.76
-17.95
-19.26
-19.48
-18.58
-16.70
-14.18
-11.51
-9.25
-7.79
-7.19
-7.12
-7.01
-6.37
-5.00
-3.18
-1.43
-0.26
0.14
-0.06
-0.42
-0.52
-0.14
0.70
1.84
3.15
4.56
6.03
7.46
8.61
9.24
9.20
8.59
7.75
7.03
6.73
6.94
7.60
8.66
10.09
11.92
14.08
16.35
18.39
19.88
20.70
20.88
20.45
19.27
16.95
12.97
7.13
-0.25
-8.12
-14.91
-18.96
-19.09
-15.07
-7.76
1.12
9.49
15.58
18.40
17.94
15.01
10.81
6.48
2.85
0.33
-1.03
-1.48
-1.50
-1.64
-2.43
-4.20
-6.92
-10.17
-13.23
-15.33
-15.81
-14.41
-11.26
-6.90
-2.05
2.58
6.48
9.39
11.24
12.04
11.83
10.70
8.83
6.48
3.87
1.04
-2.16
-6.01
-10.67
