-0	-0	-0	-0	-0	-0	-0	-0	-0	-0	0	0.01	0.01	-0	-0.03	-0.05	-0.05	0	0.13	0.36	0.66	1.01	1.37	1.72	2.06	2.4	2.79	3.24	3.8	4.42	5.06	5.66	6.2	6.68	7.15	7.68	8.31	9.14	10.09	11.04	11.88	12.56	13.14	13.76	14.65	15.96	17.91	20.32	22.9	25.38	27.58	29.57	31.68	34.32	37.81	42.54	48.15	54.1	59.83	64.97	69.58	74.14	79.34	85.71	93.76	103	112.62	121.73	129.77	136.75	143.3	150.75	157.77	166.64	177.95	191.79	206.97	220.57	228.25	225.36	208.53	176.87	132.76	80.05	23.07	-34.94	-92.44	-149.16	-205.23	-260.37	-313.74	-363.87	-409.83	-450.91	-486.5	-515.74	-537.23	-549.22	-549.96	-538.37	-514.21	-478.67	-433.88	-382.45	-327.02	-269.84	-212.63	-156.66	-102.95	-52.37	-5.9	35.58	71.43	101.35	125.5	144.38	158.69	169.15	176.37	180.75	182.57	182.07	179.51	175.23	169.65	163.18	156.15	148.81
93.76	103	112.62	121.73	129.77	136.75	143.3	150.75	157.77	166.64	177.95	191.79	206.97	220.57	228.25	225.36	208.53	176.87	132.76	80.05	23.07	-34.94	-92.44	-149.16	-205.23	-260.37	-313.74	-363.87	-409.83	-450.91	-486.5	-515.74	-537.23	-549.22	-549.96	-538.37	-514.21	-478.67	-433.88	-382.45	-327.02	-269.84	-212.63	-156.66	-102.95	-52.37	-5.9	35.58	71.43	101.35	125.5	144.38	158.69	169.15	176.37	180.75	182.57	182.07	179.51	175.23	169.65	163.18	156.15	148.81	141.3	133.69	126.02	118.33	110.69	103.16	95.8	88.68	81.83	75.25	68.95	62.95	57.25	51.86	46.78	42.03	37.59	33.45	29.61	26.07	22.81	19.83	17.11	14.67	12.48	10.54	8.83	7.35	6.07	4.97	4.05	3.27	2.62	2.09	1.65	1.3	1.01	0.79	0.61	0.47	0.37	0.29	0.23	0.19	0.17	0.16	0.16	0.17	0.19	0.21	0.24	0.28	0.32	0.36	0.4	0.45	0.5	0.54	0.59	0.65	0.7	0.76	0.83	0.9
141.3	133.69	126.02	118.33	110.69	103.16	95.8	88.68	81.83	75.25	68.95	62.95	57.25	51.86	46.78	42.03	37.59	33.45	29.61	26.07	22.81	19.83	17.11	14.67	12.48	10.54	8.83	7.35	6.07	4.97	4.05	3.27	2.62	2.09	1.65	1.3	1.01	0.79	0.61	0.47	0.37	0.29	0.23	0.19	0.17	0.16	0.16	0.17	0.19	0.21	0.24	0.28	0.32	0.36	0.4	0.45	0.5	0.54	0.59	0.65	0.7	0.76	0.83	0.9	0.97	1.06	1.15	1.26	1.37	1.51	1.65	1.82	2	2.21	2.44	2.69	2.97	3.27	3.61	3.98	4.39	4.82	5.3	5.81	6.36	6.95	7.59	8.27	8.99	9.75	10.56	11.42	12.32	13.27	14.27	15.33	16.46	17.65	18.9	20.17	21.45	22.65	23.69	24.47	24.87	24.77	24.05	22.64	20.5	17.66	14.18	10.15	5.77	1.24	-3.23	-7.43	-11.18	-14.33	-16.79	-18.5	-19.48	-19.74	-19.38	-18.52	-17.29	-15.81	-14.21	-12.57
0.97	1.06	1.15	1.26	1.37	1.51	1.65	1.82	2	2.21	2.44	2.69	2.97	3.27	3.61	3.98	4.39	4.82	5.3	5.81	6.36	6.95	7.59	8.27	8.99	9.75	10.56	11.42	12.32	13.27	14.27	15.33	16.46	17.65	18.9	20.17	21.45	22.65	23.69	24.47	24.87	24.77	24.05	22.64	20.5	17.66	14.18	10.15	5.77	1.24	-3.23	-7.43	-11.18	-14.33	-16.79	-18.5	-19.48	-19.74	-19.38	-18.52	-17.29	-15.81	-14.21	-12.57	-10.93	-9.28	-7.6	-5.88	-4.13	-2.38	-0.64	1.07	2.72	4.37	6.07	7.95	9.95	12.05	14.2	16.36	18.46	20.48	22.51	24.71	27.33	30.3	33.54	36.92	40.24	43.3	46.02	48.49	51.03	54.09	57.64	61.55	65.58	69.32	72.31	74.34	75.5	76.23	77.27	78.57	79.94	80.82	80.26	77.15	70.45	59.25	42.46	23.62	4.08	-15.47	-34.93	-54.67	-75.38	-97.89	-122.99	-150.99	-181.1	-211.7	-239.45	-260.17	-270.14	-267.59	-253.35	-230.54
-10.93	-9.28	-7.6	-5.88	-4.13	-2.38	-0.64	1.07	2.72	4.37	6.07	7.95	9.95	12.05	14.2	16.36	18.46	20.48	22.51	24.71	27.33	30.3	33.54	36.92	40.24	43.3	46.02	48.49	51.03	54.09	57.64	61.55	65.58	69.32	72.31	74.34	75.5	76.23	77.27	78.57	79.94	80.82	80.26	77.15	70.45	59.25	42.46	23.62	4.08	-15.47	-34.93	-54.67	-75.38	-97.89	-122.99	-150.99	-181.1	-211.7	-239.45	-260.17	-270.14	-267.59	-253.35	-230.54	-203.31	-175.23	-148.9	-125.18	-103.85	-84.54	-67.19	-51.98	-38.93	-27.63	-17.27	-7.36	2.31	11.56	19.76	26.26	30.68	33.2	34.39	35.12	36.04	37.44	39.17	40.71	41.39	40.71	38.62	35.47	31.9	28.42	25.32	22.61	20.06	17.4	14.51	11.34	7.86	4.06	-0.08	-4.47	-8.79	-12.53	-15.06	-15.91	-14.88	-12.12	-8.03	-3.11	2.17	7.5	12.63	17.33	21.34	24.44	26.48	27.53	27.83	27.69	27.39	27.07	26.73	26.32	25.79	25.16
-203.31	-175.23	-148.9	-125.18	-103.85	-84.54	-67.19	-51.98	-38.93	-27.63	-17.27	-7.36	2.31	11.56	19.76	26.26	30.68	33.2	34.39	35.12	36.04	37.44	39.17	40.71	41.39	40.71	38.62	35.47	31.9	28.42	25.32	22.61	20.06	17.4	14.51	11.34	7.86	4.06	-0.08	-4.47	-8.79	-12.53	-15.06	-15.91	-14.88	-12.12	-8.03	-3.11	2.17	7.5	12.63	17.33	21.34	24.44	26.48	27.53	27.83	27.69	27.39	27.07	26.73	26.32	25.79	25.16	24.49	23.8	23.06	22.2	21.15	19.9	18.46	16.81	14.92	12.79	10.55	8.37	6.49	4.95	3.63	2.23	0.47	-1.79	-4.51	-7.47	-10.41	-13.09	-15.34	-17	-17.95	-18.08	-17.28	-15.54	-12.89	-9.48	-5.58	-1.51	2.39	5.85	8.7	10.95	12.68	14.06	15.25	16.36	17.4	18.26	18.71	18.51	17.52	15.83	13.78	11.88	10.59	10.13	10.35	10.83	11.1	10.84	10.04	8.93	7.79	6.79	5.81	4.59	2.79	0.25	-2.98	-6.69
24.49	23.8	23.06	22.2	21.15	19.9	18.46	16.81	14.92	12.79	10.55	8.37	6.49	4.95	3.63	2.23	0.47	-1.79	-4.51	-7.47	-10.41	-13.09	-15.34	-17	-17.95	-18.08	-17.28	-15.54	-12.89	-9.48	-5.58	-1.51	2.39	5.85	8.7	10.95	12.68	14.06	15.25	16.36	17.4	18.26	18.71	18.51	17.52	15.83	13.78	11.88	10.59	10.13	10.35	10.83	11.1	10.84	10.04	8.93	7.79	6.79	5.81	4.59	2.79	0.25	-2.98	-6.69	-10.54	-14.25	-17.6	-20.43	-22.55	-23.75	-23.85	-22.76	-20.54	-17.38	-13.62	-9.68	-5.92	-2.54	0.5	3.41	6.38	9.43	12.38	14.82	16.47	17.29	17.58	17.79	18.28	19.14	20.11	20.8	20.93	20.46	19.57	18.47	17.28	15.97	14.4	12.47	10.24	7.94	5.87	4.25	3.07	2.16	1.19	-0.16	-2.06	-4.56	-7.58	-10.99	-14.57	-18.05	-20.98	-22.91	-23.39	-22.26	-19.7	-16.26	-12.62	-9.28	-6.37	-3.64	-0.69	2.64	6.15	9.3
-10.54	-14.25	-17.6	-20.43	-22.55	-23.75	-23.85	-22.76	-20.54	-17.38	-13.62	-9.68	-5.92	-2.54	0.5	3.41	6.38	9.43	12.38	14.82	16.47	17.29	17.58	17.79	18.28	19.14	20.11	20.8	20.93	20.46	19.57	18.47	17.28	15.97	14.4	12.47	10.24	7.94	5.87	4.25	3.07	2.16	1.19	-0.16	-2.06	-4.56	-7.58	-10.99	-14.57	-18.05	-20.98	-22.91	-23.39	-22.26	-19.7	-16.26	-12.62	-9.28	-6.37	-3.64	-0.69	2.64	6.15	9.3	11.53	12.54	12.46	11.75	10.97	10.49	10.4	10.56	10.74	10.8	10.78	10.75	10.78	10.77	10.58	9.99	8.92	7.46	5.8	4.16	2.63	1.13	-0.48	-2.37	-4.49	-6.74	-9.01	-11.33	-13.85	-16.65	-19.56	-22.07	-23.54	-23.49	-21.83	-18.93	-15.36	-11.63	-7.94	-4.22	-0.36	3.59	7.31	10.3	12.15	12.75	12.33	11.38	10.43	9.88	9.84	10.23	10.83	11.38	11.7	11.73	11.45	10.88	10.05	8.94	7.55	5.88	4	2.06
11.53	12.54	12.46	11.75	10.97	10.49	10.4	10.56	10.74	10.8	10.78	10.75	10.78	10.77	10.58	9.99	8.92	7.46	5.8	4.16	2.63	1.13	-0.48	-2.37	-4.49	-6.74	-9.01	-11.33	-13.85	-16.65	-19.56	-22.07	-23.54	-23.49	-21.83	-18.93	-15.36	-11.63	-7.94	-4.22	-0.36	3.59	7.31	10.3	12.15	12.75	12.33	11.38	10.43	9.88	9.84	10.23	10.83	11.38	11.7	11.73	11.45	10.88	10.05	8.94	7.55	5.88	4	2.06	0.27	-1.17	-2.19	-2.91	-3.63	-4.69	-6.35	-8.64	-11.37	-14.22	-16.87	-19.02	-20.49	-21.11	-20.83	-19.6	-17.52	-14.72	-11.39	-7.74	-3.98	-0.34	3.03	6.02	8.64	10.93	12.99	14.84	16.49	17.87	18.96	19.78	20.4	20.82	21.01	20.88	20.31	19.34	18.09	16.75	15.46	14.22	12.95	11.46	9.64	7.48	5.04	2.51	0.09	-2.12	-4.07	-5.85	-7.6	-9.53	-11.77	-14.32	-17.04	-19.66	-21.86	-23.38	-24.04	-23.81	-22.71	-20.81
0.27	-1.17	-2.19	-2.91	-3.63	-4.69	-6.35	-8.64	-11.37	-14.22	-16.87	-19.02	-20.49	-21.11	-20.83	-19.6	-17.52	-14.72	-11.39	-7.74	-3.98	-0.34	3.03	6.02	8.64	10.93	12.99	14.84	16.49	17.87	18.96	19.78	20.4	20.82	21.01	20.88	20.31	19.34	18.09	16.75	15.46	14.22	12.95	11.46	9.64	7.48	5.04	2.51	0.09	-2.12	-4.07	-5.85	-7.6	-9.53	-11.77	-14.32	-17.04	-19.66	-21.86	-23.38	-24.04	-23.81	-22.71	-20.81	-18.24	-15.14	-11.67	-7.95	-4.11	-0.23	3.52	7.01	10.06	12.53	14.38	15.67	16.53	17.16	17.7	18.23	18.74	19.09	19.13	18.74	17.93	16.85	15.72	14.74	13.88	13.04	11.99	10.58	8.89	7.05	5.28	3.61	1.95	0.05	-2.28	-5.13	-8.42	-11.93	-15.47	-18.87	-22.02	-24.8	-27.09	-28.71	-29.46	-29.23	-27.9	-25.51	-22.15	-17.97	-13.21	-8.16	-3.14	1.54	5.67	9.16	11.97	14.12	15.66	16.64	17.19	17.51	17.82	18.2
-18.24	-15.14	-11.67	-7.95	-4.11	-0.23	3.52	7.01	10.06	12.53	14.38	15.67	16.53	17.16	17.7	18.23	18.74	19.09	19.13	18.74	17.93	16.85	15.72	14.74	13.88	13.04	11.99	10.58	8.89	7.05	5.28	3.61	1.95	0.05	-2.28	-5.13	-8.42	-11.93	-15.47	-18.87	-22.02	-24.8	-27.09	-28.71	-29.46	-29.23	-27.9	-25.51	-22.15	-17.97	-13.21	-8.16	-3.14	1.54	5.67	9.16	11.97	14.12	15.66	16.64	17.19	17.51	17.82	18.2	18.57	18.71	18.46	17.75	16.76	15.79	15.09	14.65	14.24	13.52	12.26	10.43	8.22	5.9	3.65	1.54	-0.52	-2.59	-4.65	-6.6	-8.28	-9.62	-10.7	-11.73	-13	-14.75	-17.01	-19.61	-22.23	-24.43	-25.85	-26.22	-25.46	-23.61	-20.82	-17.27	-13.2	-8.87	-4.5	-0.29	3.6	7.05	9.9	12.01	13.3	13.79	13.72	13.45	13.34	13.6	14.25	15.11	15.89	16.4	16.56	16.42	16.09	15.6	14.96	14.14	13.11	11.86	10.41	8.74
18.57	18.71	18.46	17.75	16.76	15.79	15.09	14.65	14.24	13.52	12.26	10.43	8.22	5.9	3.65	1.54	-0.52	-2.59	-4.65	-6.6	-8.28	-9.62	-10.7	-11.73	-13	-14.75	-17.01	-19.61	-22.23	-24.43	-25.85	-26.22	-25.46	-23.61	-20.82	-17.27	-13.2	-8.87	-4.5	-0.29	3.6	7.05	9.9	12.01	13.3	13.79	13.72	13.45	13.34	13.6	14.25	15.11	15.89	16.4	16.56	16.42	16.09	15.6	14.96	14.14	13.11	11.86	10.41	8.74	6.86	4.84	2.77	0.83	-0.97	-2.69	-4.51	-6.65	-9.22	-12.19	-15.37	-18.53	-21.39	-23.72	-25.27	-25.82	-25.22	-23.47	-20.74	-17.36	-13.66	-9.85	-5.99	-2.08	1.79	5.39	8.36	10.39	11.37	11.5	11.18	10.88	10.94	11.44	12.26	13.13	13.73	13.87	13.48	12.65	11.62	10.6	9.81	9.25	8.84	8.38	7.71	6.73	5.46	3.98	2.37	0.64	-1.29	-3.5	-6.01	-8.77	-11.59	-14.34	-16.91	-19.26	-21.37	-23.14	-24.34	-24.66
6.86	4.84	2.77	0.83	-0.97	-2.69	-4.51	-6.65	-9.22	-12.19	-15.37	-18.53	-21.39	-23.72	-25.27	-25.82	-25.22	-23.47	-20.74	-17.36	-13.66	-9.85	-5.99	-2.08	1.79	5.39	8.36	10.39	11.37	11.5	11.18	10.88	10.94	11.44	12.26	13.13	13.73	13.87	13.48	12.65	11.62	10.6	9.81	9.25	8.84	8.38	7.71	6.73	5.46	3.98	2.37	0.64	-1.29	-3.5	-6.01	-8.77	-11.59	-14.34	-16.91	-19.26	-21.37	-23.14	-24.34	-24.66	-23.86	-21.85	-18.81	-15.13	-11.27	-7.58	-4.25	-1.32	1.25	3.46	5.28	6.64	7.54	8.07	8.44	8.92	9.72	10.9	12.34	13.78	14.95	15.65	15.84	15.62	15.19	14.69	14.16	13.53	12.61	11.27	9.51	7.44	5.27	3.19	1.29	-0.47	-2.23	-4.12	-6.16	-8.34	-10.61	-12.95	-15.41	-18.05	-20.81	-23.47	-25.71	-27.21	-27.73	-27.23	-25.78	-23.49	-20.48	-16.84	-12.7	-8.25	-3.77	0.48	4.29	7.53	10.09	11.91	12.99	13.39
-23.86	-21.85	-18.81	-15.13	-11.27	-7.58	-4.25	-1.32	1.25	3.46	5.28	6.64	7.54	8.07	8.44	8.92	9.72	10.9	12.34	13.78	14.95	15.65	15.84	15.62	15.19	14.69	14.16	13.53	12.61	11.27	9.51	7.44	5.27	3.19	1.29	-0.47	-2.23	-4.12	-6.16	-8.34	-10.61	-12.95	-15.41	-18.05	-20.81	-23.47	-25.71	-27.21	-27.73	-27.23	-25.78	-23.49	-20.48	-16.84	-12.7	-8.25	-3.77	0.48	4.29	7.53	10.09	11.91	12.99	13.39	13.32	13.13	13.14	13.6	14.47	15.53	16.44	16.91	16.81	16.24	15.4	14.51	13.73	13.05	12.35	11.46	10.24	8.63	6.72	4.67	2.67	0.84	-0.81	-2.35	-3.93	-5.7	-7.76	-10.18	-12.9	-15.83	-18.75	-21.38	-23.37	-24.4	-24.28	-23.01	-20.82	-18.07	-15.17	-12.35	-9.65	-6.92	-4.01	-0.88	2.25	5.03	7.14	8.45	9.11	9.46	9.86	10.56	11.54	12.62	13.59	14.26	14.62	14.74	14.73	14.63	14.42	14	13.28	12.24
13.32	13.13	13.14	13.6	14.47	15.53	16.44	16.91	16.81	16.24	15.4	14.51	13.73	13.05	12.35	11.46	10.24	8.63	6.72	4.67	2.67	0.84	-0.81	-2.35	-3.93	-5.7	-7.76	-10.18	-12.9	-15.83	-18.75	-21.38	-23.37	-24.4	-24.28	-23.01	-20.82	-18.07	-15.17	-12.35	-9.65	-6.92	-4.01	-0.88	2.25	5.03	7.14	8.45	9.11	9.46	9.86	10.56	11.54	12.62	13.59	14.26	14.62	14.74	14.73	14.63	14.42	14	13.28	12.24	10.94	9.5	7.98	6.45	4.89	3.29	1.72	0.35	-0.64	-1.13	-1.21	-1.14	-1.28	-2	-3.49	-5.75	-8.62	-11.86	-15.17	-18.24	-20.7	-22.18	-22.38	-21.2	-18.82	-15.65	-12.16	-8.74	-5.53	-2.46	0.53	3.45	6.11	8.29	9.85	10.86	11.52	12.13	12.79	13.43	13.88	13.98	13.76	13.39	13.1	12.98	12.95	12.82	12.35	11.4	9.92	7.95	5.56	2.91	0.19	-2.35	-4.42	-5.84	-6.58	-6.84	-7.01	-7.51	-8.67	-10.69
10.94	9.5	7.98	6.45	4.89	3.29	1.72	0.35	-0.64	-1.13	-1.21	-1.14	-1.28	-2	-3.49	-5.75	-8.62	-11.86	-15.17	-18.24	-20.7	-22.18	-22.38	-21.2	-18.82	-15.65	-12.16	-8.74	-5.53	-2.46	0.53	3.45	6.11	8.29	9.85	10.86	11.52	12.13	12.79	13.43	13.88	13.98	13.76	13.39	13.1	12.98	12.95	12.82	12.35	11.4	9.92	7.95	5.56	2.91	0.19	-2.35	-4.42	-5.84	-6.58	-6.84	-7.01	-7.51	-8.67	-10.69	-13.49	-16.84	-20.34	-23.54	-25.99	-27.36	-27.4	-26.07	-23.45	-19.84	-15.55	-11.05	-6.74	-2.97	0.1	2.44	4.12	5.27	5.99	6.41	6.63	6.82	7.15	7.7	8.41	9.11	9.54	9.53	9.08	8.34	7.55	6.91	6.47	6.1	5.59	4.77	3.51	1.85	-0.11	-2.26	-4.54	-6.98	-9.65	-12.66	-15.94	-19.33	-22.5	-25.11	-26.87	-27.6	-27.27	-25.84	-23.4	-20.03	-16.01	-11.67	-7.39	-3.45	0.07	3.26	6.32	9.28	12.03	14.33
-13.49	-16.84	-20.34	-23.54	-25.99	-27.36	-27.4	-26.07	-23.45	-19.84	-15.55	-11.05	-6.74	-2.97	0.1	2.44	4.12	5.27	5.99	6.41	6.63	6.82	7.15	7.7	8.41	9.11	9.54	9.53	9.08	8.34	7.55	6.91	6.47	6.1	5.59	4.77	3.51	1.85	-0.11	-2.26	-4.54	-6.98	-9.65	-12.66	-15.94	-19.33	-22.5	-25.11	-26.87	-27.6	-27.27	-25.84	-23.4	-20.03	-16.01	-11.67	-7.39	-3.45	0.07	3.26	6.32	9.28	12.03	14.33	15.99	17.01	17.58	18.01	18.52	19.15	19.76	20.17	20.24	19.97	19.41	18.65	17.76	16.72	15.57	14.33	13.07	11.84	10.69	9.58	8.36	6.91	5.09	2.93	0.58	-1.8	-4.09	-6.35	-8.83	-11.82	-15.4	-19.36	-23.16	-26.04	-27.41	-26.97	-24.89	-21.62	-17.76	-13.81	-10.04	-6.47	-3.04	0.29	3.42	6.2	8.49	10.23	11.54	12.64	13.73	14.94	16.24	17.56	18.74	19.61	19.92	19.54	18.36	16.5	14.26	12.03	10.13	8.74
15.99	17.01	17.58	18.01	18.52	19.15	19.76	20.17	20.24	19.97	19.41	18.65	17.76	16.72	15.57	14.33	13.07	11.84	10.69	9.58	8.36	6.91	5.09	2.93	0.58	-1.8	-4.09	-6.35	-8.83	-11.82	-15.4	-19.36	-23.16	-26.04	-27.41	-26.97	-24.89	-21.62	-17.76	-13.81	-10.04	-6.47	-3.04	0.29	3.42	6.2	8.49	10.23	11.54	12.64	13.73	14.94	16.24	17.56	18.74	19.61	19.92	19.54	18.36	16.5	14.26	12.03	10.13	8.74	7.79	7.07	6.31	5.28	3.84	1.99	-0.21	-2.61	-5.07	-7.42	-9.55	-11.44	-13.14	-14.69	-16.11	-17.33	-18.15	-18.28	-17.34	-15.06	-11.33	-6.46	-1.04	4.16	8.45	11.59	13.7	15.15	16.28	17.21	17.8	17.94	17.64	17.15	16.86	16.99	17.55	18.28	18.94	19.42	19.84	20.36	21.09	21.97	22.75	23.24	23.36	23.15	22.65	21.88	20.7	19.01	16.76	14.06	11.1	8.05	5.01	2	-0.92	-3.64	-6.08	-8.19	-10.04	-11.71
7.79	7.07	6.31	5.28	3.84	1.99	-0.21	-2.61	-5.07	-7.42	-9.55	-11.44	-13.14	-14.69	-16.11	-17.33	-18.15	-18.28	-17.34	-15.06	-11.33	-6.46	-1.04	4.16	8.45	11.59	13.7	15.15	16.28	17.21	17.8	17.94	17.64	17.15	16.86	16.99	17.55	18.28	18.94	19.42	19.84	20.36	21.09	21.97	22.75	23.24	23.36	23.15	22.65	21.88	20.7	19.01	16.76	14.06	11.1	8.05	5.01	2	-0.92	-3.64	-6.08	-8.19	-10.04	-11.71	-13.18	-14.28	-14.74	-14.35	-13.1	-11.24	-9.16	-7.26	-5.73	-4.65	-3.93	-3.51	-3.42	-3.76	-4.63	-6.07	-8.02	-10.23	-12.42	-14.25	-15.48	-15.97	-15.78	-15.06	-13.99	-12.78	-11.54	-10.37	-9.35	-8.54	-7.99	-7.7	-7.59	-7.56	-7.48	-7.34	-7.24	-7.39	-8.02	-9.2	-10.81	-12.52	-14.02	-15.22	-16.3	-17.7	-19.84	-22.88	-26.54	-30.17	-33	-34.41	-34.2	-32.55	-29.86	-26.56	-22.9	-19.01	-15	-11	-7.27	-4.01	-1.27	1.26
-13.18	-14.28	-14.74	-14.35	-13.1	-11.24	-9.16	-7.26	-5.73	-4.65	-3.93	-3.51	-3.42	-3.76	-4.63	-6.07	-8.02	-10.23	-12.42	-14.25	-15.48	-15.97	-15.78	-15.06	-13.99	-12.78	-11.54	-10.37	-9.35	-8.54	-7.99	-7.7	-7.59	-7.56	-7.48	-7.34	-7.24	-7.39	-8.02	-9.2	-10.81	-12.52	-14.02	-15.22	-16.3	-17.7	-19.84	-22.88	-26.54	-30.17	-33	-34.41	-34.2	-32.55	-29.86	-26.56	-22.9	-19.01	-15	-11	-7.27	-4.01	-1.27	1.26	4.1	7.77	12.47	17.87	23.22	27.64	30.52	31.75	31.68	30.89	29.83	28.67	27.36	25.78	23.96	22.09	20.31	18.69	16.96	14.83	12.04	8.62	4.99	1.61	-1.13	-3.26	-5.19	-7.46	-10.51	-14.33	-18.46	-22.15	-24.69	-25.66	-25.07	-23.25	-20.67	-17.72	-14.56	-11.22	-7.6	-3.73	0.2	3.85	6.9	9.17	10.74	11.86	12.84	13.86	14.85	15.62	15.95	15.79	15.27	14.65	14.17	13.94	13.9	13.87	13.7	13.2	12.28	10.9
4.1	7.77	12.47	17.87	23.22	27.64	30.52	31.75	31.68	30.89	29.83	28.67	27.36	25.78	23.96	22.09	20.31	18.69	16.96	14.83	12.04	8.62	4.99	1.61	-1.13	-3.26	-5.19	-7.46	-10.51	-14.33	-18.46	-22.15	-24.69	-25.66	-25.07	-23.25	-20.67	-17.72	-14.56	-11.22	-7.6	-3.73	0.2	3.85	6.9	9.17	10.74	11.86	12.84	13.86	14.85	15.62	15.95	15.79	15.27	14.65	14.17	13.94	13.9	13.87	13.7	13.2	12.28	10.9	9.09	6.9	4.5	2.07	-0.26	-2.41	-4.45	-6.48	-8.57	-10.76	-13.04	-15.43	-18.01	-20.77	-23.55	-25.99	-27.54	-27.73	-26.3	-23.4	-19.47	-15.05	-10.65	-6.57	-2.91	0.31	3.14	5.61	7.73	9.53	11.01	12.19	13.18	14.1	15.06	16.1	17.13	17.92	18.23	17.89	16.96	15.65	14.32	13.24	12.5	11.99	11.43	10.52	9.06	7.04	4.63	2.11	-0.24	-2.19	-3.72	-5.01	-6.34	-8.04	-10.31	-13.19	-16.53	-20.02	-23.27	-25.92
9.09	6.9	4.5	2.07	-0.26	-2.41	-4.45	-6.48	-8.57	-10.76	-13.04	-15.43	-18.01	-20.77	-23.55	-25.99	-27.54	-27.73	-26.3	-23.4	-19.47	-15.05	-10.65	-6.57	-2.91	0.31	3.14	5.61	7.73	9.53	11.01	12.19	13.18	14.1	15.06	16.1	17.13	17.92	18.23	17.89	16.96	15.65	14.32	13.24	12.5	11.99	11.43	10.52	9.06	7.04	4.63	2.11	-0.24	-2.19	-3.72	-5.01	-6.34	-8.04	-10.31	-13.19	-16.53	-20.02	-23.27	-25.92	-27.62	-28.1	-27.2	-24.96	-21.6	-17.54	-13.25	-9.14	-5.39	-1.99	1.19	4.24	7.17	9.86	12.11	13.78	14.84	15.31	15.3	14.91	14.23	13.43	12.73	12.37	12.52	13.17	14.06	14.74	14.78	13.91	12.26	10.23	8.34	6.96	6.14	5.64	5.08	4.16	2.75	0.9	-1.23	-3.52	-5.89	-8.36	-11	-13.85	-16.93	-20.18	-23.41	-26.32	-28.53	-29.67	-29.53	-28.08	-25.48	-22.02	-18	-13.69	-9.31	-5.01	-0.95	2.75	5.94	8.53
-27.62	-28.1	-27.2	-24.96	-21.6	-17.54	-13.25	-9.14	-5.39	-1.99	1.19	4.24	7.17	9.86	12.11	13.78	14.84	15.31	15.3	14.91	14.23	13.43	12.73	12.37	12.52	13.17	14.06	14.74	14.78	13.91	12.26	10.23	8.34	6.96	6.14	5.64	5.08	4.16	2.75	0.9	-1.23	-3.52	-5.89	-8.36	-11	-13.85	-16.93	-20.18	-23.41	-26.32	-28.53	-29.67	-29.53	-28.08	-25.48	-22.02	-18	-13.69	-9.31	-5.01	-0.95	2.75	5.94	8.53	10.52	12.03	13.27	14.42	15.51	16.42	16.94	16.94	16.54	15.96	15.56	15.43	15.45	15.29	14.68	13.58	12.17	10.7	9.29	7.84	6.18	4.23	2.13	0.15	-1.42	-2.53	-3.4	-4.35	-5.67	-7.49	-9.77	-12.34	-15.05	-17.72	-20.13	-22	-22.98	-22.79	-21.34	-18.8	-15.53	-11.95	-8.38	-5.01	-1.89	0.92	3.4	5.51	7.21	8.55	9.6	10.48	11.25	11.95	12.59	13.19	13.73	14.25	14.73	15.13	15.38	15.38	15.05	14.25
10.52	12.03	13.27	14.42	15.51	16.42	16.94	16.94	16.54	15.96	15.56	15.43	15.45	15.29	14.68	13.58	12.17	10.7	9.29	7.84	6.18	4.23	2.13	0.15	-1.42	-2.53	-3.4	-4.35	-5.67	-7.49	-9.77	-12.34	-15.05	-17.72	-20.13	-22	-22.98	-22.79	-21.34	-18.8	-15.53	-11.95	-8.38	-5.01	-1.89	0.92	3.4	5.51	7.21	8.55	9.6	10.48	11.25	11.95	12.59	13.19	13.73	14.25	14.73	15.13	15.38	15.38	15.05	14.25	12.84	10.79	8.24	5.51	2.91	0.77	-0.86	-2.1	-3.22	-4.52	-6.22	-8.39	-10.99	-13.96	-17.13	-20.36	-23.37	-25.84	-27.41	-27.78	-26.83	-24.66	-21.56	-17.84	-13.82	-9.66	-5.45	-1.24	2.86	6.6	9.69	11.93	13.27	13.87	14.06	14.19	14.47	14.95	15.47	15.85	15.96	15.8	15.42	14.92	14.33	13.63	12.78	11.75	10.57	9.23	7.69	5.87	3.71	1.27	-1.27	-3.68	-5.75	-7.47	-9.02	-10.73	-12.86	-15.54	-18.59	-21.68
12.84	10.79	8.24	5.51	2.91	0.77	-0.86	-2.1	-3.22	-4.52	-6.22	-8.39	-10.99	-13.96	-17.13	-20.36	-23.37	-25.84	-27.41	-27.78	-26.83	-24.66	-21.56	-17.84	-13.82	-9.66	-5.45	-1.24	2.86	6.6	9.69	11.93	13.27	13.87	14.06	14.19	14.47	14.95	15.47	15.85	15.96	15.8	15.42	14.92	14.33	13.63	12.78	11.75	10.57	9.23	7.69	5.87	3.71	1.27	-1.27	-3.68	-5.75	-7.47	-9.02	-10.73	-12.86	-15.54	-18.59	-21.68	-24.39	-26.35	-27.38	-27.45	-26.66	-25.1	-22.82	-19.9	-16.4	-12.49	-8.38	-4.29	-0.35	3.36	6.78	9.8	12.3	14.15	15.36	16.09	16.59	17.07	17.64	18.12	18.3	18.04	17.36	16.48	15.6	14.83	14.04	13.13	12	10.68	9.31	7.95	6.58	5.11	3.45	1.6	-0.34	-2.29	-4.23	-6.21	-8.32	-10.54	-12.8	-15.03	-17.18	-19.34	-21.54	-23.69	-25.41	-26.08	-25.08	-22.08	-17.2	-11	-4.34	2.01	7.62	12.36	16.28	19.48
-24.39	-26.35	-27.38	-27.45	-26.66	-25.1	-22.82	-19.9	-16.4	-12.49	-8.38	-4.29	-0.35	3.36	6.78	9.8	12.3	14.15	15.36	16.09	16.59	17.07	17.64	18.12	18.3	18.04	17.36	16.48	15.6	14.83	14.04	13.13	12	10.68	9.31	7.95	6.58	5.11	3.45	1.6	-0.34	-2.29	-4.23	-6.21	-8.32	-10.54	-12.8	-15.03	-17.18	-19.34	-21.54	-23.69	-25.41	-26.08	-25.08	-22.08	-17.2	-11	-4.34	2.01	7.62	12.36	16.28	19.48	21.99	23.81	25.09	26.15	27.36	28.96	30.9	32.78	34.12	34.52	33.92	32.49	30.58	28.52	26.57	24.91	23.71	23.14	23.31	24.23	25.7	27.32	28.42	28.17	25.75	20.58	12.56	2.22	-9.39	-21.03	-31.67	-40.79	-48.38	-54.72	-60.02	-64.15	-66.67	-67.06	-65.15	-61.22	-55.96	-50.19	-44.52	-39.18	-34.01	-28.74	-23.21	-17.5	-11.94	-6.95	-2.77	0.59	3.35	5.8	8.12	10.28	12.08	13.29	13.84	13.91	13.85	13.99	14.45	15.03
21.99	23.81	25.09	26.15	27.36	28.96	30.9	32.78	34.12	34.52	33.92	32.49	30.58	28.52	26.57	24.91	23.71	23.14	23.31	24.23	25.7	27.32	28.42	28.17	25.75	20.58	12.56	2.22	-9.39	-21.03	-31.67	-40.79	-48.38	-54.72	-60.02	-64.15	-66.67	-67.06	-65.15	-61.22	-55.96	-50.19	-44.52	-39.18	-34.01	-28.74	-23.21	-17.5	-11.94	-6.95	-2.77	0.59	3.35	5.8	8.12	10.28	12.08	13.29	13.84	13.91	13.85	13.99	14.45	15.03	15.32	14.93	13.68	11.73	9.49	7.33	5.46	3.83	2.22	0.43	-1.61	-3.79	-5.93	-7.94	-9.82	-11.71	-13.74	-16	-18.42	-20.82	-22.86	-24.15	-24.33	-23.19	-20.77	-17.35	-13.33	-9.09	-4.83	-0.61	3.51	7.36	10.66	13.08	14.49	15.02	15.15	15.36	15.99	17.02	18.16	19.01	19.31	19.06	18.49	17.84	17.24	16.66	15.98	15.15	14.21	13.3	12.5	11.81	11.11	10.27	9.27	8.19	7.18	6.31	5.49	4.53	3.25	1.61
15.32	14.93	13.68	11.73	9.49	7.33	5.46	3.83	2.22	0.43	-1.61	-3.79	-5.93	-7.94	-9.82	-11.71	-13.74	-16	-18.42	-20.82	-22.86	-24.15	-24.33	-23.19	-20.77	-17.35	-13.33	-9.09	-4.83	-0.61	3.51	7.36	10.66	13.08	14.49	15.02	15.15	15.36	15.99	17.02	18.16	19.01	19.31	19.06	18.49	17.84	17.24	16.66	15.98	15.15	14.21	13.3	12.5	11.81	11.11	10.27	9.27	8.19	7.18	6.31	5.49	4.53	3.25	1.61	-0.17	-1.72	-2.59	-2.45	-1.19	1.16	4.55	8.92	14.28	20.48	27.23	34.15	40.92	47.5	54.09	61.03	68.5	76.29	83.78	90.02	94.02	94.93	92.31	86.13	76.91	65.66	53.77	42.69	33.62	27.04	22.51	18.54	12.91	3.14	-12.65	-34.91	-62.21	-91.35	-118.32	-139.46	-152.6	-157.5	-155.61	-149.17	-140.3	-130.46	-120.44	-110.65	-101.41	-93.17	-86.29	-80.88	-76.77	-73.55	-70.85	-68.44	-66.31	-64.52	-63.13	-62.09	-61.26	-60.59	-60.11	-59.96
-0.17	-1.72	-2.59	-2.45	-1.19	1.16	4.55	8.92	14.28	20.48	27.23	34.15	40.92	47.5	54.09	61.03	68.5	76.29	83.78	90.02	94.02	94.93	92.31	86.13	76.91	65.66	53.77	42.69	33.62	27.04	22.51	18.54	12.91	3.14	-12.65	-34.91	-62.21	-91.35	-118.32	-139.46	-152.6	-157.5	-155.61	-149.17	-140.3	-130.46	-120.44	-110.65	-101.41	-93.17	-86.29	-80.88	-76.77	-73.55	-70.85	-68.44	-66.31	-64.52	-63.13	-62.09	-61.26	-60.59	-60.11	-59.96	-60.16	-60.43	-60.11	-58.37	-54.49	-48.25	-40.03	-30.66	-21.14	-12.26	-4.35	2.77	9.62	16.88	25.1	34.4	44.34	53.8	61.21	64.99	63.94	57.71	46.86	32.74	17.25	2.4	-10.04	-18.89	-23.73	-25.02	-23.84	-21.51	-19.08	-16.95	-14.89	-12.38	-9.04	-4.95	-0.66	3.14	5.95	7.61	8.3	8.4	8.25	8.14	8.35	9.16	10.83	13.52	17.17	21.44	25.85	29.96	33.54	36.55	39.14	41.39	43.27	44.56	45.01	44.52	43.18	41.33
-60.16	-60.43	-60.11	-58.37	-54.49	-48.25	-40.03	-30.66	-21.14	-12.26	-4.35	2.77	9.62	16.88	25.1	34.4	44.34	53.8	61.21	64.99	63.94	57.71	46.86	32.74	17.25	2.4	-10.04	-18.89	-23.73	-25.02	-23.84	-21.51	-19.08	-16.95	-14.89	-12.38	-9.04	-4.95	-0.66	3.14	5.95	7.61	8.3	8.4	8.25	8.14	8.35	9.16	10.83	13.52	17.17	21.44	25.85	29.96	33.54	36.55	39.14	41.39	43.27	44.56	45.01	44.52	43.18	41.33	39.34	37.49	35.92	34.65	33.77	33.51	34.24	36.31	39.89	44.93	51.13	58.08	65.3	72.37	78.85	84.29	88.25	90.43	90.76	89.46	86.99	83.96	80.93	78.29	76.17	74.36	72.41	69.85	66.36	61.92	56.98	52.27	48.57	46.44	46.11	47.39	49.89	53.2	56.93	60.73	64.11	66.46	67.11	65.61	61.96	56.62	50.19	42.99	34.75	24.67	11.96	-3.55	-21.1	-39.11	-55.8	-69.85	-80.71	-88.62	-94.23	-98.14	-100.77	-102.32	-102.98	-103.06
39.34	37.49	35.92	34.65	33.77	33.51	34.24	36.31	39.89	44.93	51.13	58.08	65.3	72.37	78.85	84.29	88.25	90.43	90.76	89.46	86.99	83.96	80.93	78.29	76.17	74.36	72.41	69.85	66.36	61.92	56.98	52.27	48.57	46.44	46.11	47.39	49.89	53.2	56.93	60.73	64.11	66.46	67.11	65.61	61.96	56.62	50.19	42.99	34.75	24.67	11.96	-3.55	-21.1	-39.11	-55.8	-69.85	-80.71	-88.62	-94.23	-98.14	-100.77	-102.32	-102.98	-103.06	-103	-103.31	-104.49	-106.99	-111.09	-116.79	-123.68	-130.86	-137.14	-141.26	-142.3	-139.93	-134.51	-126.93	-118.3	-109.68	-101.7	-94.6	-88.14	-81.85	-75.24	-68.03	-60.18	-51.92	-43.51	-35.15	-26.83	-18.44	-9.88	-1.24	7.17	14.9	21.57	26.95	30.95	33.59	34.89	34.83	33.48	31.1	28.27	25.76	24.4	24.76	27.02	30.86	35.55	40.18	43.83	45.8	45.76	43.81	40.43	36.36	32.41	29.29	27.5	27.18	28.13	29.92	32.1	34.26	36.22	37.92
-103	-103.31	-104.49	-106.99	-111.09	-116.79	-123.68	-130.86	-137.14	-141.26	-142.3	-139.93	-134.51	-126.93	-118.3	-109.68	-101.7	-94.6	-88.14	-81.85	-75.24	-68.03	-60.18	-51.92	-43.51	-35.15	-26.83	-18.44	-9.88	-1.24	7.17	14.9	21.57	26.95	30.95	33.59	34.89	34.83	33.48	31.1	28.27	25.76	24.4	24.76	27.02	30.86	35.55	40.18	43.83	45.8	45.76	43.81	40.43	36.36	32.41	29.29	27.5	27.18	28.13	29.92	32.1	34.26	36.22	37.92	39.37	40.53	41.25	41.27	40.36	38.49	35.84	32.76	29.62	26.67	23.97	21.4	18.87	16.32	13.83	11.53	9.49	7.64	5.88	4.1	2.3	0.52	-1.28	-3.3	-5.87	-9.28	-13.57	-18.52	-23.69	-28.76	-33.64	-38.57	-43.84	-49.49	-55.02	-59.46	-61.62	-60.57	-56	-48.35	-38.61	-27.83	-16.73	-5.47	6.22	18.68	31.92	45.42	58.23	69.37	78.22	84.76	89.53	93.49	97.75	103.4	111.31	121.87	134.57	147.83	159.15	165.65	165.07	156.53
39.37	40.53	41.25	41.27	40.36	38.49	35.84	32.76	29.62	26.67	23.97	21.4	18.87	16.32	13.83	11.53	9.49	7.64	5.88	4.1	2.3	0.52	-1.28	-3.3	-5.87	-9.28	-13.57	-18.52	-23.69	-28.76	-33.64	-38.57	-43.84	-49.49	-55.02	-59.46	-61.62	-60.57	-56	-48.35	-38.61	-27.83	-16.73	-5.47	6.22	18.68	31.92	45.42	58.23	69.37	78.22	84.76	89.53	93.49	97.75	103.4	111.31	121.87	134.57	147.83	159.15	165.65	165.07	156.53	140.82	120.1	97.11	74.25	53.06	34.16	17.49	2.76	-10.32	-21.99	-32.57	-42.44	-52.01	-61.43	-70.52	-78.7	-85.17	-89.23	-90.54	-89.2	-85.64	-80.41	-74.06	-67	-59.57	-52.04	-44.58	-37.25	-29.94	-22.53	-15.02	-7.75	-1.3	3.7	6.87	8.33	8.63	8.48	8.44	8.72	9.18	9.58	9.75	9.74	9.68	9.63	9.43	8.69	7.05	4.37	0.86	-3	-6.6	-9.5	-11.53	-12.83	-13.73	-14.58	-15.66	-17.18	-19.27	-21.97	-25.26	-29.01
140.82	120.1	97.11	74.25	53.06	34.16	17.49	2.76	-10.32	-21.99	-32.57	-42.44	-52.01	-61.43	-70.52	-78.7	-85.17	-89.23	-90.54	-89.2	-85.64	-80.41	-74.06	-67	-59.57	-52.04	-44.58	-37.25	-29.94	-22.53	-15.02	-7.75	-1.3	3.7	6.87	8.33	8.63	8.48	8.44	8.72	9.18	9.58	9.75	9.74	9.68	9.63	9.43	8.69	7.05	4.37	0.86	-3	-6.6	-9.5	-11.53	-12.83	-13.73	-14.58	-15.66	-17.18	-19.27	-21.97	-25.26	-29.01	-32.91	-36.46	-39.12	-40.51	-40.45	-39.07	-36.72	-33.7	-30.23	-26.38	-22.22	-17.87	-13.57	-9.61	-6.15	-3.21	-0.73	1.43	3.26	4.69	5.64	6.17	6.47	6.74	7.11	7.48	7.69	7.62	7.29	6.86	6.46	6.02	5.27	3.86	1.67	-1.05	-3.77	-5.96	-7.45	-8.51	-9.74	-11.74	-14.73	-18.52	-22.58	-26.27	-29.11	-30.83	-31.3	-30.46	-28.25	-24.74	-20.17	-14.96	-9.7	-4.89	-0.88	2.27	4.73	6.71	8.46	10.12	11.77	13.46
-32.91	-36.46	-39.12	-40.51	-40.45	-39.07	-36.72	-33.7	-30.23	-26.38	-22.22	-17.87	-13.57	-9.61	-6.15	-3.21	-0.73	1.43	3.26	4.69	5.64	6.17	6.47	6.74	7.11	7.48	7.69	7.62	7.29	6.86	6.46	6.02	5.27	3.86	1.67	-1.05	-3.77	-5.96	-7.45	-8.51	-9.74	-11.74	-14.73	-18.52	-22.58	-26.27	-29.11	-30.83	-31.3	-30.46	-28.25	-24.74	-20.17	-14.96	-9.7	-4.89	-0.88	2.27	4.73	6.71	8.46	10.12	11.77	13.46	15.17	16.8	18.19	19.12	19.48	19.32	18.88	18.49	18.37	18.51	18.66	18.43	17.49	15.69	13.09	9.84	6.14	2.14	-2.02	-6.18	-10.13	-13.65	-16.6	-19.07	-21.3	-23.57	-25.98	-28.38	-30.35	-31.43	-31.31	-29.89	-27.37	-24.03	-20.21	-16.15	-11.99	-7.78	-3.54	0.71	4.94	8.94	12.46	15.16	16.83	17.47	17.32	16.77	16.15	15.63	15.22	14.83	14.34	13.72	12.98	12.15	11.29	10.53	9.98	9.73	9.75	9.85	9.72	9.07
15.17	16.8	18.19	19.12	19.48	19.32	18.88	18.49	18.37	18.51	18.66	18.43	17.49	15.69	13.09	9.84	6.14	2.14	-2.02	-6.18	-10.13	-13.65	-16.6	-19.07	-21.3	-23.57	-25.98	-28.38	-30.35	-31.43	-31.31	-29.89	-27.37	-24.03	-20.21	-16.15	-11.99	-7.78	-3.54	0.71	4.94	8.94	12.46	15.16	16.83	17.47	17.32	16.77	16.15	15.63	15.22	14.83	14.34	13.72	12.98	12.15	11.29	10.53	9.98	9.73	9.75	9.85	9.72	9.07	7.67	5.53	2.82	-0.11	-2.94	-5.46	-7.65	-9.69	-11.83	-14.28	-17.14	-20.26	-23.29	-25.75	-27.15	-27.14	-25.58	-22.63	-18.66	-14.16	-9.66	-5.52	-1.93	1.13	3.77	6.14	8.25	10.06	11.5	12.55	13.32	14.01	14.81	15.86	17.11	18.36	19.35	19.91	19.97	19.62	18.97	18.11	17.05	15.73	14.11	12.21	10.17	8.13	6.15	4.2	2.1	-0.23	-2.73	-5.17	-7.29	-8.96	-10.33	-11.73	-13.53	-15.93	-18.83	-21.86	-24.57	-26.58
7.67	5.53	2.82	-0.11	-2.94	-5.46	-7.65	-9.69	-11.83	-14.28	-17.14	-20.26	-23.29	-25.75	-27.15	-27.14	-25.58	-22.63	-18.66	-14.16	-9.66	-5.52	-1.93	1.13	3.77	6.14	8.25	10.06	11.5	12.55	13.32	14.01	14.81	15.86	17.11	18.36	19.35	19.91	19.97	19.62	18.97	18.11	17.05	15.73	14.11	12.21	10.17	8.13	6.15	4.2	2.1	-0.23	-2.73	-5.17	-7.29	-8.96	-10.33	-11.73	-13.53	-15.93	-18.83	-21.86	-24.57	-26.58	-27.73	-27.98	-27.39	-25.99	-23.8	-20.87	-17.29	-13.22	-8.87	-4.45	-0.21	3.58	6.63	8.78	10.04	10.62	10.85	11.12	11.62	12.29	12.88	13.03	12.52	11.36	9.87	8.48	7.55	7.15	7.01	6.71	5.78	4.06	1.71	-0.82	-3.04	-4.66	-5.73	-6.58	-7.65	-9.29	-11.65	-14.71	-18.25	-22.04	-25.75	-28.99	-31.39	-32.62	-32.52	-31.11	-28.59	-25.18	-21.05	-16.34	-11.12	-5.56	0.06	5.34	9.91	13.54	16.28	18.43	20.35	22.37
-27.73	-27.98	-27.39	-25.99	-23.8	-20.87	-17.29	-13.22	-8.87	-4.45	-0.21	3.58	6.63	8.78	10.04	10.62	10.85	11.12	11.62	12.29	12.88	13.03	12.52	11.36	9.87	8.48	7.55	7.15	7.01	6.71	5.78	4.06	1.71	-0.82	-3.04	-4.66	-5.73	-6.58	-7.65	-9.29	-11.65	-14.71	-18.25	-22.04	-25.75	-28.99	-31.39	-32.62	-32.52	-31.11	-28.59	-25.18	-21.05	-16.34	-11.12	-5.56	0.06	5.34	9.91	13.54	16.28	18.43	20.35	22.37	24.56	26.75	28.58	29.72	29.91	29.12	27.57	25.62	23.71	22.18	21.15	20.43	19.59	18.15	15.78	12.41	8.33	4.03	-0.05	-3.62	-6.61	-9.13	-11.33	-13.31	-15.09	-16.67	-18.03	-19.23	-20.3	-21.16	-21.57	-21.13	-19.39	-16.05	-11.19	-5.3	0.82	6.33	10.72	13.9	16.31	18.51	20.92	23.6	26.26	28.42	29.75	30.23	30.06	29.53	28.81	27.93	26.81	25.49	24.15	23.02	22.19	21.47	20.47	18.75	16.09	12.64	8.78	4.97
24.56	26.75	28.58	29.72	29.91	29.12	27.57	25.62	23.71	22.18	21.15	20.43	19.59	18.15	15.78	12.41	8.33	4.03	-0.05	-3.62	-6.61	-9.13	-11.33	-13.31	-15.09	-16.67	-18.03	-19.23	-20.3	-21.16	-21.57	-21.13	-19.39	-16.05	-11.19	-5.3	0.82	6.33	10.72	13.9	16.31	18.51	20.92	23.6	26.26	28.42	29.75	30.23	30.06	29.53	28.81	27.93	26.81	25.49	24.15	23.02	22.19	21.47	20.47	18.75	16.09	12.64	8.78	4.97	1.53	-1.4	-3.88	-6.01	-7.91	-9.76	-11.77	-14.24	-17.39	-21.36	-25.97	-30.72	-34.87	-37.61	-38.32	-36.7	-33.03	-28.02	-22.61	-17.62	-13.44	-10.04	-7.11	-4.38	-1.79	0.54	2.44	3.97	5.31	6.68	8.12	9.44	10.33	10.62	10.43	10.12	10.09	10.49	11.16	11.66	11.6	10.86	9.63	8.21	6.81	5.41	3.74	1.53	-1.3	-4.49	-7.63	-10.31	-12.39	-14.06	-15.8	-18.14	-21.44	-25.72	-30.6	-35.36	-39.14	-41.24	-41.22	-39.16
1.53	-1.4	-3.88	-6.01	-7.91	-9.76	-11.77	-14.24	-17.39	-21.36	-25.97	-30.72	-34.87	-37.61	-38.32	-36.7	-33.03	-28.02	-22.61	-17.62	-13.44	-10.04	-7.11	-4.38	-1.79	0.54	2.44	3.97	5.31	6.68	8.12	9.44	10.33	10.62	10.43	10.12	10.09	10.49	11.16	11.66	11.6	10.86	9.63	8.21	6.81	5.41	3.74	1.53	-1.3	-4.49	-7.63	-10.31	-12.39	-14.06	-15.8	-18.14	-21.44	-25.72	-30.6	-35.36	-39.14	-41.24	-41.22	-39.16	-35.49	-30.89	-26.01	-21.25	-16.82	-12.73	-8.94	-5.48	-2.35	0.41	2.79	4.86	6.71	8.47	10.29	12.27	14.4	16.53	18.37	19.61	20.09	19.86	19.2	18.48	18.03	17.87	17.8	17.42	16.41	14.7	12.53	10.37	8.66	7.58	6.92	6.18	4.75	2.29	-1.17	-5.29	-9.6	-13.78	-17.68	-21.25	-24.32	-26.53	-27.44	-26.73	-24.35	-20.61	-15.99	-10.98	-5.9	-0.95	3.74	8.03	11.75	14.75	17	18.61	19.74	20.63	21.45	22.3
-35.49	-30.89	-26.01	-21.25	-16.82	-12.73	-8.94	-5.48	-2.35	0.41	2.79	4.86	6.71	8.47	10.29	12.27	14.4	16.53	18.37	19.61	20.09	19.86	19.2	18.48	18.03	17.87	17.8	17.42	16.41	14.7	12.53	10.37	8.66	7.58	6.92	6.18	4.75	2.29	-1.17	-5.29	-9.6	-13.78	-17.68	-21.25	-24.32	-26.53	-27.44	-26.73	-24.35	-20.61	-15.99	-10.98	-5.9	-0.95	3.74	8.03	11.75	14.75	17	18.61	19.74	20.63	21.45	22.3	23.14	23.92	24.48	24.73	24.68	24.44	24.12	23.82	23.49	22.99	22.21	21.11	19.76	18.29	16.75	15.08	13.14	10.82	8.13	5.23	2.37	-0.31	-2.81	-5.31	-8.11	-11.44	-15.27	-19.25	-22.85	-25.47	-26.7	-26.45	-24.91	-22.44	-19.35	-15.82	-11.87	-7.49	-2.82	1.81	5.93	9.1	11.08	11.94	12.02	11.82	11.74	11.98	12.48	13.1	13.6	13.91	14.09	14.23	14.42	14.57	14.53	14.04	12.99	11.41	9.47	7.39	5.3	3.25
23.14	23.92	24.48	24.73	24.68	24.44	24.12	23.82	23.49	22.99	22.21	21.11	19.76	18.29	16.75	15.08	13.14	10.82	8.13	5.23	2.37	-0.31	-2.81	-5.31	-8.11	-11.44	-15.27	-19.25	-22.85	-25.47	-26.7	-26.45	-24.91	-22.44	-19.35	-15.82	-11.87	-7.49	-2.82	1.81	5.93	9.1	11.08	11.94	12.02	11.82	11.74	11.98	12.48	13.1	13.6	13.91	14.09	14.23	14.42	14.57	14.53	14.04	12.99	11.41	9.47	7.39	5.3	3.25	1.23	-0.78	-2.75	-4.62	-6.41	-8.16	-10.06	-12.26	-14.85	-17.75	-20.71	-23.45	-25.66	-27.05	-27.41	-26.61	-24.68	-21.77	-18.19	-14.3	-10.4	-6.65	-3.04	0.48	3.91	7.08	9.71	11.53	12.46	12.68	12.62	12.73	13.27	14.17	15.13	15.75	15.74	15.09	13.97	12.67	11.41	10.31	9.37	8.53	7.66	6.65	5.39	3.76	1.73	-0.64	-3.23	-5.85	-8.4	-10.89	-13.4	-16.03	-18.84	-21.82	-24.88	-27.82	-30.37	-32.17	-32.88	-32.19
1.23	-0.78	-2.75	-4.62	-6.41	-8.16	-10.06	-12.26	-14.85	-17.75	-20.71	-23.45	-25.66	-27.05	-27.41	-26.61	-24.68	-21.77	-18.19	-14.3	-10.4	-6.65	-3.04	0.48	3.91	7.08	9.71	11.53	12.46	12.68	12.62	12.73	13.27	14.17	15.13	15.75	15.74	15.09	13.97	12.67	11.41	10.31	9.37	8.53	7.66	6.65	5.39	3.76	1.73	-0.64	-3.23	-5.85	-8.4	-10.89	-13.4	-16.03	-18.84	-21.82	-24.88	-27.82	-30.37	-32.17	-32.88	-32.19	-30.05	-26.62	-22.34	-17.67	-12.99	-8.51	-4.29	-0.36	3.11	5.92	7.91	9.08	9.7	10.2	11	12.27	13.84	15.3	16.17	16.22	15.61	14.85	14.51	14.96	16.15	17.64	18.83	19.2	18.57	17.05	14.92	12.43	9.74	6.95	4.16	1.47	-1.02	-3.35	-5.67	-8.25	-11.27	-14.8	-18.67	-22.55	-26.05	-28.85	-30.63	-31.19	-30.44	-28.41	-25.44	-21.99	-18.59	-15.53	-12.83	-10.24	-7.46	-4.48	-1.57	0.75	2	2.13	1.55	1.02
-30.05	-26.62	-22.34	-17.67	-12.99	-8.51	-4.29	-0.36	3.11	5.92	7.91	9.08	9.7	10.2	11	12.27	13.84	15.3	16.17	16.22	15.61	14.85	14.51	14.96	16.15	17.64	18.83	19.2	18.57	17.05	14.92	12.43	9.74	6.95	4.16	1.47	-1.02	-3.35	-5.67	-8.25	-11.27	-14.8	-18.67	-22.55	-26.05	-28.85	-30.63	-31.19	-30.44	-28.41	-25.44	-21.99	-18.59	-15.53	-12.83	-10.24	-7.46	-4.48	-1.57	0.75	2	2.13	1.55	1.02	1.27	2.69	5.3	8.85	13.13	18.05	23.59	29.63	35.79	41.52	46.31	49.92	52.39	53.93	54.55	53.99	51.79	47.62	41.61	34.43	27.1	20.61	15.56	12.04	9.68	8.01	6.66	5.49	4.48	3.71	3.17	2.79	2.41	1.78	0.62	-1.37	-4.32	-8.08	-12.17	-15.96	-18.91	-20.86	-21.97	-22.58	-22.88	-22.68	-21.59	-19.27	-15.79	-11.75	-8.07	-5.43	-4.08	-3.65	-3.45	-2.93	-1.89	-0.59	0.57	1.22	1.32	1.08	0.83	0.81
1.27	2.69	5.3	8.85	13.13	18.05	23.59	29.63	35.79	41.52	46.31	49.92	52.39	53.93	54.55	53.99	51.79	47.62	41.61	34.43	27.1	20.61	15.56	12.04	9.68	8.01	6.66	5.49	4.48	3.71	3.17	2.79	2.41	1.78	0.62	-1.37	-4.32	-8.08	-12.17	-15.96	-18.91	-20.86	-21.97	-22.58	-22.88	-22.68	-21.59	-19.27	-15.79	-11.75	-8.07	-5.43	-4.08	-3.65	-3.45	-2.93	-1.89	-0.59	0.57	1.22	1.32	1.08	0.83	0.81	1.05	1.35	1.53	1.51	1.42	1.51	1.91	2.57	3.21	3.5	3.3	2.78	2.35	2.44	3.21	4.37	5.35	5.56	4.69	2.91	0.72	-1.28	-2.72	-3.54	-4	-4.51	-5.38	-6.78	-8.66	-10.83	-12.96	-14.73	-15.81	-16.01	-15.32	-13.89	-12	-9.97	-8.07	-6.5	-5.45	-5.02	-5.25	-6.1	-7.4	-8.92	-10.46	-11.92	-13.34	-14.84	-16.55	-18.47	-20.46	-22.33	-23.96	-25.35	-26.63	-27.94	-29.31	-30.58	-31.46	-31.57	-30.65	-28.53
1.05	1.35	1.53	1.51	1.42	1.51	1.91	2.57	3.21	3.5	3.3	2.78	2.35	2.44	3.21	4.37	5.35	5.56	4.69	2.91	0.72	-1.28	-2.72	-3.54	-4	-4.51	-5.38	-6.78	-8.66	-10.83	-12.96	-14.73	-15.81	-16.01	-15.32	-13.89	-12	-9.97	-8.07	-6.5	-5.45	-5.02	-5.25	-6.1	-7.4	-8.92	-10.46	-11.92	-13.34	-14.84	-16.55	-18.47	-20.46	-22.33	-23.96	-25.35	-26.63	-27.94	-29.31	-30.58	-31.46	-31.57	-30.65	-28.53	-25.26	-20.97	-15.85	-10.17	-4.23	1.52	6.64	10.76	13.67	15.43	16.32	16.69	16.88	17.1	17.44	17.91	18.43	18.87	19.04	18.73	17.87	16.52	14.97	13.54	12.43	11.59	10.76	9.6	7.89	5.7	3.25	0.78	-1.59	-3.88	-6.14	-8.35	-10.46	-12.45	-14.52	-16.95	-19.97	-23.5	-27.11	-30.09	-31.72	-31.6	-29.7	-26.39	-22.22	-17.67	-13.17	-8.93	-5.1	-1.66	1.47	4.44	7.35	10.2	12.87	15.13	16.77	17.71	18.03	18.01
-25.26	-20.97	-15.85	-10.17	-4.23	1.52	6.64	10.76	13.67	15.43	16.32	16.69	16.88	17.1	17.44	17.91	18.43	18.87	19.04	18.73	17.87	16.52	14.97	13.54	12.43	11.59	10.76	9.6	7.89	5.7	3.25	0.78	-1.59	-3.88	-6.14	-8.35	-10.46	-12.45	-14.52	-16.95	-19.97	-23.5	-27.11	-30.09	-31.72	-31.6	-29.7	-26.39	-22.22	-17.67	-13.17	-8.93	-5.1	-1.66	1.47	4.44	7.35	10.2	12.87	15.13	16.77	17.71	18.03	18.01	17.99	18.28	19	20.05	21.13	21.88	22.04	21.51	20.35	18.75	16.9	14.96	13.04	11.16	9.37	7.58	5.71	3.68	1.46	-0.83	-2.99	-4.83	-6.36	-7.86	-9.8	-12.55	-16.15	-20.26	-24.22	-27.37	-29.29	-29.82	-29.03	-27.05	-23.99	-19.98	-15.19	-9.96	-4.75	0	4.05	7.33	10	12.26	14.26	16.05	17.64	19	20.09	20.87	21.26	21.21	20.72	19.9	18.96	18.16	17.69	17.53	17.51	17.3	16.63	15.37	13.64	11.64
17.99	18.28	19	20.05	21.13	21.88	22.04	21.51	20.35	18.75	16.9	14.96	13.04	11.16	9.37	7.58	5.71	3.68	1.46	-0.83	-2.99	-4.83	-6.36	-7.86	-9.8	-12.55	-16.15	-20.26	-24.22	-27.37	-29.29	-29.82	-29.03	-27.05	-23.99	-19.98	-15.19	-9.96	-4.75	0	4.05	7.33	10	12.26	14.26	16.05	17.64	19	20.09	20.87	21.26	21.21	20.72	19.9	18.96	18.16	17.69	17.53	17.51	17.3	16.63	15.37	13.64	11.64	9.61	7.66	5.77	3.81	1.66	-0.67	-3.11	-5.6	-8.13	-10.83	-13.91	-17.46	-21.36	-25.28	-28.7	-31.14	-32.27	-32.05	-30.62	-28.26	-25.23	-21.71	-17.82	-13.65	-9.42	-5.29	-1.52	1.78	4.61	7.05	9.23	11.18	12.81	14	14.7	15.01	15.15	15.37	15.79	16.35	16.81	17.03	16.94	16.55	15.92	15	13.68	11.89	9.73	7.43	5.27	3.36	1.59	-0.32	-2.6	-5.26	-8.09	-10.78	-13.23	-15.59	-18.18	-21.2	-24.54	-27.74
9.61	7.66	5.77	3.81	1.66	-0.67	-3.11	-5.6	-8.13	-10.83	-13.91	-17.46	-21.36	-25.28	-28.7	-31.14	-32.27	-32.05	-30.62	-28.26	-25.23	-21.71	-17.82	-13.65	-9.42	-5.29	-1.52	1.78	4.61	7.05	9.23	11.18	12.81	14	14.7	15.01	15.15	15.37	15.79	16.35	16.81	17.03	16.94	16.55	15.92	15	13.68	11.89	9.73	7.43	5.27	3.36	1.59	-0.32	-2.6	-5.26	-8.09	-10.78	-13.23	-15.59	-18.18	-21.2	-24.54	-27.74	-30.17	-31.3	-30.92	-29.16	-26.31	-22.76	-18.78	-14.5	-10.03	-5.44	-0.9	3.38	7.1	10.03	12.05	13.29	14.05	14.69	15.55	16.69	17.96	19.11	19.95	20.44	20.74	20.96	21.08	20.91	20.18	18.8	16.9	14.81	12.95	11.53	10.54	9.7	8.76	7.57	6.2	4.79	3.37	1.77	-0.32	-3.2	-6.99	-11.52	-16.4	-21.12	-25.26	-28.5	-30.64	-31.5	-30.97	-29.04	-25.9	-21.9	-17.5	-13.03	-8.65	-4.31	0.05	4.38	8.47	12.01
-30.17	-31.3	-30.92	-29.16	-26.31	-22.76	-18.78	-14.5	-10.03	-5.44	-0.9	3.38	7.1	10.03	12.05	13.29	14.05	14.69	15.55	16.69	17.96	19.11	19.95	20.44	20.74	20.96	21.08	20.91	20.18	18.8	16.9	14.81	12.95	11.53	10.54	9.7	8.76	7.57	6.2	4.79	3.37	1.77	-0.32	-3.2	-6.99	-11.52	-16.4	-21.12	-25.26	-28.5	-30.64	-31.5	-30.97	-29.04	-25.9	-21.9	-17.5	-13.03	-8.65	-4.31	0.05	4.38	8.47	12.01	14.82	16.84	18.22	19.13	19.66	19.79	19.52	19	18.49	18.34	18.7	19.46	20.28	20.77	20.73	20.22	19.48	18.68	17.75	16.4	14.27	11.27	7.64	3.9	0.6	-1.98	-3.95	-5.69	-7.66	-10.12	-13.12	-16.54	-20.27	-24.29	-28.54	-32.86	-36.79	-39.77	-41.3	-41.16	-39.58	-37.04	-34.09	-31.12	-28.27	-25.49	-22.68	-19.86	-17.17	-14.88	-13.26	-12.51	-12.68	-13.72	-15.38	-17.34	-19.29	-21.03	-22.52	-23.94	-25.5	-27.42	-29.82	-32.69
14.82	16.84	18.22	19.13	19.66	19.79	19.52	19	18.49	18.34	18.7	19.46	20.28	20.77	20.73	20.22	19.48	18.68	17.75	16.4	14.27	11.27	7.64	3.9	0.6	-1.98	-3.95	-5.69	-7.66	-10.12	-13.12	-16.54	-20.27	-24.29	-28.54	-32.86	-36.79	-39.77	-41.3	-41.16	-39.58	-37.04	-34.09	-31.12	-28.27	-25.49	-22.68	-19.86	-17.17	-14.88	-13.26	-12.51	-12.68	-13.72	-15.38	-17.34	-19.29	-21.03	-22.52	-23.94	-25.5	-27.42	-29.82	-32.69	-35.96	-39.45	-42.79	-45.44	-46.7	-45.92	-42.61	-36.63	-28.17	-17.81	-6.27	5.61	16.95	26.97	35.07	40.97	44.72	46.56	46.79	45.58	42.96	38.92	33.63	27.67	21.91	17.41	15.03	15.12	17.45	21.25	25.58	29.62	32.98	35.65	37.83	39.7	41.19	42.06	42.05	41.05	39.29	37.16	35.13	33.52	32.42	31.68	31.09	30.41	29.52	28.35	26.9	25.1	22.9	20.21	17.05	13.47	9.64	5.7	1.85	-1.81	-5.19	-8.21	-10.81	-13.01
-35.96	-39.45	-42.79	-45.44	-46.7	-45.92	-42.61	-36.63	-28.17	-17.81	-6.27	5.61	16.95	26.97	35.07	40.97	44.72	46.56	46.79	45.58	42.96	38.92	33.63	27.67	21.91	17.41	15.03	15.12	17.45	21.25	25.58	29.62	32.98	35.65	37.83	39.7	41.19	42.06	42.05	41.05	39.29	37.16	35.13	33.52	32.42	31.68	31.09	30.41	29.52	28.35	26.9	25.1	22.9	20.21	17.05	13.47	9.64	5.7	1.85	-1.81	-5.19	-8.21	-10.81	-13.01	-15.02	-17.14	-19.73	-22.94	-26.59	-30.16	-32.93	-34.24	-33.75	-31.57	-28.11	-23.82	-19.09	-14.09	-8.96	-3.89	0.8	4.72	7.63	9.5	10.55	11.17	11.67	12.25	12.91	13.54	13.98	14.11	13.9	13.41	12.75	12.04	11.35	10.67	9.86	8.77	7.25	5.23	2.78	0.04	-2.81	-5.56	-8.1	-10.41	-12.64	-14.98	-17.71	-20.96	-24.65	-28.4	-31.61	-33.64	-34.03	-32.64	-29.67	-25.56	-20.85	-15.95	-11.07	-6.25	-1.49	3.15	7.45	11.05
-15.02	-17.14	-19.73	-22.94	-26.59	-30.16	-32.93	-34.24	-33.75	-31.57	-28.11	-23.82	-19.09	-14.09	-8.96	-3.89	0.8	4.72	7.63	9.5	10.55	11.17	11.67	12.25	12.91	13.54	13.98	14.11	13.9	13.41	12.75	12.04	11.35	10.67	9.86	8.77	7.25	5.23	2.78	0.04	-2.81	-5.56	-8.1	-10.41	-12.64	-14.98	-17.71	-20.96	-24.65	-28.4	-31.61	-33.64	-34.03	-32.64	-29.67	-25.56	-20.85	-15.95	-11.07	-6.25	-1.49	3.15	7.45	11.05	13.66	15.17	15.76	15.79	15.68	15.74	16.09	16.62	17.16	17.52	17.6	17.32	16.61	15.46	13.9	12.06	10.09	8.09	5.99	3.75	1.33	-1.08	-3.19	-4.78	-5.92	-7.02	-8.7	-11.44	-15.25	-19.67	-23.89	-27.12	-28.96	-29.4	-28.68	-26.98	-24.38	-20.86	-16.51	-11.58	-6.47	-1.59	2.85	6.79	10.26	13.26	15.67	17.36	18.3	18.69	18.85	19.13	19.7	20.56	21.49	22.24	22.58	22.36	21.54	20.18	18.39	16.35	14.16	11.87
13.66	15.17	15.76	15.79	15.68	15.74	16.09	16.62	17.16	17.52	17.6	17.32	16.61	15.46	13.9	12.06	10.09	8.09	5.99	3.75	1.33	-1.08	-3.19	-4.78	-5.92	-7.02	-8.7	-11.44	-15.25	-19.67	-23.89	-27.12	-28.96	-29.4	-28.68	-26.98	-24.38	-20.86	-16.51	-11.58	-6.47	-1.59	2.85	6.79	10.26	13.26	15.67	17.36	18.3	18.69	18.85	19.13	19.7	20.56	21.49	22.24	22.58	22.36	21.54	20.18	18.39	16.35	14.16	11.87	9.51	7.05	4.52	2	-0.44	-2.77	-5.14	-7.7	-10.69	-14.2	-18.14	-22.27	-26.24	-29.66	-32.14	-33.41	-33.23	-31.56	-28.52	-24.43	-19.67	-14.64	-9.67	-4.92	-0.5	3.55	7.2	10.44	13.24	15.57	17.46	18.93	20.03	20.85	21.45	21.86	22.06	21.95	21.46	20.58	19.43	18.23	17.19	16.41	15.76	14.97	13.74	11.91	9.55	6.88	4.22	1.84	-0.19	-1.93	-3.6	-5.38	-7.41	-9.76	-12.36	-15.16	-18.04	-20.88	-23.47	-25.5
9.51	7.05	4.52	2	-0.44	-2.77	-5.14	-7.7	-10.69	-14.2	-18.14	-22.27	-26.24	-29.66	-32.14	-33.41	-33.23	-31.56	-28.52	-24.43	-19.67	-14.64	-9.67	-4.92	-0.5	3.55	7.2	10.44	13.24	15.57	17.46	18.93	20.03	20.85	21.45	21.86	22.06	21.95	21.46	20.58	19.43	18.23	17.19	16.41	15.76	14.97	13.74	11.91	9.55	6.88	4.22	1.84	-0.19	-1.93	-3.6	-5.38	-7.41	-9.76	-12.36	-15.16	-18.04	-20.88	-23.47	-25.5	-26.6	-26.46	-24.92	-22	-17.95	-13.08	-7.75	-2.29	3	7.75	11.65	14.48	16.2	17.02	17.25	17.29	17.37	17.63	18.04	18.5	18.89	19.07	18.92	18.39	17.53	16.43	15.26	14.06	12.77	11.2	9.2	6.81	4.19	1.64	-0.64	-2.64	-4.57	-6.75	-9.41	-12.64	-16.31	-20.17	-23.9	-27.19	-29.75	-31.25	-31.39	-29.94	-26.88	-22.49	-17.24	-11.72	-6.44	-1.66	2.57	6.37	9.86	13.02	15.74	17.88	19.43	20.48	21.24	21.79
-26.6	-26.46	-24.92	-22	-17.95	-13.08	-7.75	-2.29	3	7.75	11.65	14.48	16.2	17.02	17.25	17.29	17.37	17.63	18.04	18.5	18.89	19.07	18.92	18.39	17.53	16.43	15.26	14.06	12.77	11.2	9.2	6.81	4.19	1.64	-0.64	-2.64	-4.57	-6.75	-9.41	-12.64	-16.31	-20.17	-23.9	-27.19	-29.75	-31.25	-31.39	-29.94	-26.88	-22.49	-17.24	-11.72	-6.44	-1.66	2.57	6.37	9.86	13.02	15.74	17.88	19.43	20.48	21.24	21.79	22.09	21.97	21.32	20.19	18.88	17.78	17.16	16.99	16.92	16.48	15.31	13.35	10.81	8.03	5.3	2.63	-0.06	-2.9	-5.89	-8.85	-11.62	-14.1	-16.47	-19	-21.95	-25.23	-28.43	-30.86	-31.82	-30.93	-28.14	-23.81	-18.49	-12.75	-7.02	-1.6	3.32	7.61	11.16	13.98	16.12	17.73	18.94	19.85	20.41	20.52	20.13	19.28	18.18	17.09	16.23	15.67	15.32	14.98	14.45	13.58	12.34	10.77	8.98	7.07	5.14	3.22	1.31	-0.67
22.09	21.97	21.32	20.19	18.88	17.78	17.16	16.99	16.92	16.48	15.31	13.35	10.81	8.03	5.3	2.63	-0.06	-2.9	-5.89	-8.85	-11.62	-14.1	-16.47	-19	-21.95	-25.23	-28.43	-30.86	-31.82	-30.93	-28.14	-23.81	-18.49	-12.75	-7.02	-1.6	3.32	7.61	11.16	13.98	16.12	17.73	18.94	19.85	20.41	20.52	20.13	19.28	18.18	17.09	16.23	15.67	15.32	14.98	14.45	13.58	12.34	10.77	8.98	7.07	5.14	3.22	1.31	-0.67	-2.78	-5.03	-7.37	-9.77	-12.26	-14.95	-18.08	-21.68	-25.56	-29.24	-32.05	-33.41	-32.97	-30.68	-26.76	-21.64	-15.87	-10.04	-4.66	-0.03	3.79	6.96	9.71	12.21	14.41	16.15	17.26	17.76	17.87	17.86	17.97	18.16	18.29	18.14	17.63	16.84	15.98	15.24	14.7	14.25	13.61	12.45	10.53	7.84	4.64	1.36	-1.53	-3.82	-5.61	-7.22	-9.09	-11.42	-14.13	-16.93	-19.58	-21.96	-24.12	-26.15	-27.9	-29.04	-29.12	-27.85	-25.22	-21.5
-2.78	-5.03	-7.37	-9.77	-12.26	-14.95	-18.08	-21.68	-25.56	-29.24	-32.05	-33.41	-32.97	-30.68	-26.76	-21.64	-15.87	-10.04	-4.66	-0.03	3.79	6.96	9.71	12.21	14.41	16.15	17.26	17.76	17.87	17.86	17.97	18.16	18.29	18.14	17.63	16.84	15.98	15.24	14.7	14.25	13.61	12.45	10.53	7.84	4.64	1.36	-1.53	-3.82	-5.61	-7.22	-9.09	-11.42	-14.13	-16.93	-19.58	-21.96	-24.12	-26.15	-27.9	-29.04	-29.12	-27.85	-25.22	-21.5	-17.12	-12.45	-7.71	-3.01	1.51	5.66	9.19	11.89	13.69	14.6	14.78	14.45	13.9	13.39	13.13	13.18	13.37	13.48	13.24	12.53	11.45	10.27	9.29	8.66	8.31	7.91	7.16	5.79	3.84	1.5	-0.95	-3.24	-5.29	-7.14	-8.96	-10.95	-13.24	-15.92	-18.93	-22.12	-25.16	-27.64	-29.1	-29.17	-27.74	-24.89	-21	-16.51	-11.92	-7.51	-3.39	0.52	4.35	8.13	11.69	14.68	16.74	17.73	17.85	17.52	17.22	17.13	17.17	16.98
-17.12	-12.45	-7.71	-3.01	1.51	5.66	9.19	11.89	13.69	14.6	14.78	14.45	13.9	13.39	13.13	13.18	13.37	13.48	13.24	12.53	11.45	10.27	9.29	8.66	8.31	7.91	7.16	5.79	3.84	1.5	-0.95	-3.24	-5.29	-7.14	-8.96	-10.95	-13.24	-15.92	-18.93	-22.12	-25.16	-27.64	-29.1	-29.17	-27.74	-24.89	-21	-16.51	-11.92	-7.51	-3.39	0.52	4.35	8.13	11.69	14.68	16.74	17.73	17.85	17.52	17.22	17.13	17.17	16.98	16.33	15.27	14.1	13.21	12.8	12.78	12.83	12.64	12.05	11.05	9.76	8.18	6.26	3.96	1.4	-1.2	-3.55	-5.55	-7.37	-9.35	-11.84	-15	-18.72	-22.63	-26.3	-29.32	-31.35	-32.16	-31.57	-29.6	-26.39	-22.24	-17.52	-12.59	-7.72	-3.14	1.02	4.69	7.82	10.4	12.45	13.94	14.91	15.41	15.56	15.5	15.44	15.52	15.83	16.32	16.79	16.98	16.68	15.82	14.47	12.86	11.21	9.65	8.18	6.71	5.15	3.51	1.85	0.26
16.33	15.27	14.1	13.21	12.8	12.78	12.83	12.64	12.05	11.05	9.76	8.18	6.26	3.96	1.4	-1.2	-3.55	-5.55	-7.37	-9.35	-11.84	-15	-18.72	-22.63	-26.3	-29.32	-31.35	-32.16	-31.57	-29.6	-26.39	-22.24	-17.52	-12.59	-7.72	-3.14	1.02	4.69	7.82	10.4	12.45	13.94	14.91	15.41	15.56	15.5	15.44	15.52	15.83	16.32	16.79	16.98	16.68	15.82	14.47	12.86	11.21	9.65	8.18	6.71	5.15	3.51	1.85	0.26	-1.26	-2.83	-4.59	-6.57	-8.74	-10.95	-13.16	-15.42	-17.86	-20.56	-23.45	-26.25	-28.56	-29.97	-30.11	-28.84	-26.24	-22.57	-18.24	-13.66	-9.13	-4.78	-0.65	3.22	6.68	9.49	11.4	12.35	12.58	12.49	12.52	12.95	13.78	14.81	15.79	16.53	16.94	17.02	16.81	16.38	15.73	14.84	13.65	12.12	10.29	8.28	6.28	4.41	2.68	0.88	-1.16	-3.55	-6.13	-8.59	-10.68	-12.31	-13.71	-15.27	-17.34	-19.93	-22.79	-25.49	-27.55	-28.62
-1.26	-2.83	-4.59	-6.57	-8.74	-10.95	-13.16	-15.42	-17.86	-20.56	-23.45	-26.25	-28.56	-29.97	-30.11	-28.84	-26.24	-22.57	-18.24	-13.66	-9.13	-4.78	-0.65	3.22	6.68	9.49	11.4	12.35	12.58	12.49	12.52	12.95	13.78	14.81	15.79	16.53	16.94	17.02	16.81	16.38	15.73	14.84	13.65	12.12	10.29	8.28	6.28	4.41	2.68	0.88	-1.16	-3.55	-6.13	-8.59	-10.68	-12.31	-13.71	-15.27	-17.34	-19.93	-22.79	-25.49	-27.55	-28.62	-28.48	-27.07	-24.39	-20.61	-16.01	-10.97	-5.94	-1.24	2.94	6.51	9.52	11.96	13.85	15.18	15.98	16.3	16.26	15.98	15.61	15.31	15.22	15.39	15.69	15.89	15.76	15.15	14.11	12.81	11.41	9.94	8.3	6.29	3.84	0.98	-2.05	-4.95	-7.53	-9.68	-11.5	-13.18	-15	-17.14	-19.71	-22.61	-25.57	-28.12	-29.73	-29.95	-28.56	-25.64	-21.49	-16.59	-11.39	-6.27	-1.48	2.78	6.35	9.06	10.8	11.58	11.54	11	10.31	9.82
-28.48	-27.07	-24.39	-20.61	-16.01	-10.97	-5.94	-1.24	2.94	6.51	9.52	11.96	13.85	15.18	15.98	16.3	16.26	15.98	15.61	15.31	15.22	15.39	15.69	15.89	15.76	15.15	14.11	12.81	11.41	9.94	8.3	6.29	3.84	0.98	-2.05	-4.95	-7.53	-9.68	-11.5	-13.18	-15	-17.14	-19.71	-22.61	-25.57	-28.12	-29.73	-29.95	-28.56	-25.64	-21.49	-16.59	-11.39	-6.27	-1.48	2.78	6.35	9.06	10.8	11.58	11.54	11	10.31	9.82	9.75	10.13	10.87	11.71	12.42	12.79	12.75	12.34	11.65	10.67	9.34	7.54	5.26	2.69	0.19	-1.89	-3.36	-4.34	-5.23	-6.46	-8.32	-10.84	-13.84	-17.06	-20.29	-23.38	-26.06	-27.95	-28.57	-27.5	-24.63	-20.18	-14.76	-9	-3.45	1.6	6.1	10.11	13.61	16.45	18.44	19.48	19.7	19.49	19.28	19.43	20.02	20.82	21.42	21.35	20.36	18.5	16.12	13.74	11.8	10.55	9.89	9.52	9.04	8.17	6.82	5.08	3.12	1.05
9.75	10.13	10.87	11.71	12.42	12.79	12.75	12.34	11.65	10.67	9.34	7.54	5.26	2.69	0.19	-1.89	-3.36	-4.34	-5.23	-6.46	-8.32	-10.84	-13.84	-17.06	-20.29	-23.38	-26.06	-27.95	-28.57	-27.5	-24.63	-20.18	-14.76	-9	-3.45	1.6	6.1	10.11	13.61	16.45	18.44	19.48	19.7	19.49	19.28	19.43	20.02	20.82	21.42	21.35	20.36	18.5	16.12	13.74	11.8	10.55	9.89	9.52	9.04	8.17	6.82	5.08	3.12	1.05	-1.15	-3.51	-6.03	-8.56	-10.92	-13.02	-14.94	-16.96	-19.38	-22.32	-25.6	-28.73	-31.03	-31.89	-30.93	-28.15	-23.85	-18.49	-12.63	-6.78	-1.39	3.23	6.96	9.87	12.18	14.2	16.12	17.98	19.63	20.85	21.47	21.47	20.98	20.22	19.35	18.41	17.39	16.27	15.11	13.98	12.96	12.04	11.15	10.16	9.01	7.66	6.14	4.51	2.78	0.99	-0.81	-2.59	-4.28	-5.89	-7.57	-9.51	-11.99	-15.13	-18.83	-22.72	-26.29	-29.04	-30.6	-30.85
-1.15	-3.51	-6.03	-8.56	-10.92	-13.02	-14.94	-16.96	-19.38	-22.32	-25.6	-28.73	-31.03	-31.89	-30.93	-28.15	-23.85	-18.49	-12.63	-6.78	-1.39	3.23	6.96	9.87	12.18	14.2	16.12	17.98	19.63	20.85	21.47	21.47	20.98	20.22	19.35	18.41	17.39	16.27	15.11	13.98	12.96	12.04	11.15	10.16	9.01	7.66	6.14	4.51	2.78	0.99	-0.81	-2.59	-4.28	-5.89	-7.57	-9.51	-11.99	-15.13	-18.83	-22.72	-26.29	-29.04	-30.6	-30.85	-29.82	-27.69	-24.66	-20.9	-16.55	-11.75	-6.69	-1.61	3.17	7.4	10.89	13.57	15.52	16.87	17.81	18.48	19	19.45	19.93	20.48	21.04	21.46	21.45	20.8	19.46	17.69	15.89	14.44	13.52	12.94	12.31	11.23	9.56	7.52	5.41	3.5	1.82	0.12	-1.96	-4.67	-7.95	-11.51	-15	-18.2	-21.11	-23.86	-26.52	-28.9	-30.61	-31.15	-30.18	-27.64	-23.78	-18.98	-13.65	-8.13	-2.71	2.38	6.88	10.59	13.52	15.8	17.67	19.29
-29.82	-27.69	-24.66	-20.9	-16.55	-11.75	-6.69	-1.61	3.17	7.4	10.89	13.57	15.52	16.87	17.81	18.48	19	19.45	19.93	20.48	21.04	21.46	21.45	20.8	19.46	17.69	15.89	14.44	13.52	12.94	12.31	11.23	9.56	7.52	5.41	3.5	1.82	0.12	-1.96	-4.67	-7.95	-11.51	-15	-18.2	-21.11	-23.86	-26.52	-28.9	-30.61	-31.15	-30.18	-27.64	-23.78	-18.98	-13.65	-8.13	-2.71	2.38	6.88	10.59	13.52	15.8	17.67	19.29	20.66	21.68	22.22	22.27	21.97	21.48	20.85	20.05	19.04	17.83	16.57	15.45	14.5	13.61	12.46	10.74	8.32	5.33	2.08	-1.04	-3.76	-6.02	-7.93	-9.66	-11.42	-13.34	-15.53	-18.12	-21.16	-24.63	-28.34	-31.92	-34.81	-36.44	-36.31	-34.2	-30.2	-24.7	-18.32	-11.77	-5.69	-0.47	3.78	7.21	10.12	12.78	15.28	17.55	19.42	20.75	21.52	21.84	21.91	21.91	21.92	21.93	21.88	21.69	21.38	20.96	20.46	19.81	18.81	17.27
20.66	21.68	22.22	22.27	21.97	21.48	20.85	20.05	19.04	17.83	16.57	15.45	14.5	13.61	12.46	10.74	8.32	5.33	2.08	-1.04	-3.76	-6.02	-7.93	-9.66	-11.42	-13.34	-15.53	-18.12	-21.16	-24.63	-28.34	-31.92	-34.81	-36.44	-36.31	-34.2	-30.2	-24.7	-18.32	-11.77	-5.69	-0.47	3.78	7.21	10.12	12.78	15.28	17.55	19.42	20.75	21.52	21.84	21.91	21.91	21.92	21.93	21.88	21.69	21.38	20.96	20.46	19.81	18.81	17.27	15.12	12.51	9.79	7.35	5.36	3.7	2.09	0.21	-2.02	-4.52	-7.06	-9.55	-12.01	-14.59	-17.43	-20.54	-23.8	-26.95	-29.69	-31.73	-32.79	-32.64	-31.19	-28.53	-24.89	-20.65	-16.14	-11.62	-7.18	-2.82	1.48	5.66	9.6	13.09	15.85	17.7	18.55	18.51	17.85	16.97	16.31	16.19	16.7	17.59	18.42	18.74	18.35	17.4	16.26	15.26	14.49	13.69	12.49	10.67	8.31	5.73	3.33	1.3	-0.49	-2.29	-4.32	-6.6	-8.93	-11.09
15.12	12.51	9.79	7.35	5.36	3.7	2.09	0.21	-2.02	-4.52	-7.06	-9.55	-12.01	-14.59	-17.43	-20.54	-23.8	-26.95	-29.69	-31.73	-32.79	-32.64	-31.19	-28.53	-24.89	-20.65	-16.14	-11.62	-7.18	-2.82	1.48	5.66	9.6	13.09	15.85	17.7	18.55	18.51	17.85	16.97	16.31	16.19	16.7	17.59	18.42	18.74	18.35	17.4	16.26	15.26	14.49	13.69	12.49	10.67	8.31	5.73	3.33	1.3	-0.49	-2.29	-4.32	-6.6	-8.93	-11.09	-13.06	-15.07	-17.5	-20.62	-24.38	-28.31	-31.72	-33.86	-34.27	-32.85	-29.88	-25.82	-21.06	-15.88	-10.43	-4.92	0.32	4.86	8.35	10.69	12.13	13.14	14.18	15.45	16.87	18.14	19	19.38	19.39	19.27	19.16	19.1	19.02	18.82	18.45	17.91	17.15	16.07	14.58	12.62	10.31	7.89	5.61	3.65	2	0.5	-1.07	-2.83	-4.82	-6.91	-9.02	-11.17	-13.51	-16.27	-19.54	-23.2	-26.9	-30.15	-32.41	-33.25	-32.42	-29.9	-25.92	-20.94
-13.06	-15.07	-17.5	-20.62	-24.38	-28.31	-31.72	-33.86	-34.27	-32.85	-29.88	-25.82	-21.06	-15.88	-10.43	-4.92	0.32	4.86	8.35	10.69	12.13	13.14	14.18	15.45	16.87	18.14	19	19.38	19.39	19.27	19.16	19.1	19.02	18.82	18.45	17.91	17.15	16.07	14.58	12.62	10.31	7.89	5.61	3.65	2	0.5	-1.07	-2.83	-4.82	-6.91	-9.02	-11.17	-13.51	-16.27	-19.54	-23.2	-26.9	-30.15	-32.41	-33.25	-32.42	-29.9	-25.92	-20.94	-15.51	-10.14	-5.13	-0.52	3.75	7.71	11.2	13.91	15.54	16.09	15.87	15.46	15.37	15.79	16.55	17.22	17.48	17.23	16.7	16.23	16.08	16.19	16.3	16.02	15.13	13.67	11.83	9.84	7.83	5.81	3.69	1.41	-0.98	-3.44	-5.94	-8.55	-11.36	-14.43	-17.74	-21.12	-24.36	-27.2	-29.42	-30.82	-31.22	-30.46	-28.51	-25.52	-21.78	-17.7	-13.56	-9.52	-5.53	-1.49	2.58	6.46	9.82	12.35	13.99	14.94	15.53	16.07	16.65	17.13
-15.51	-10.14	-5.13	-0.52	3.75	7.71	11.2	13.91	15.54	16.09	15.87	15.46	15.37	15.79	16.55	17.22	17.48	17.23	16.7	16.23	16.08	16.19	16.3	16.02	15.13	13.67	11.83	9.84	7.83	5.81	3.69	1.41	-0.98	-3.44	-5.94	-8.55	-11.36	-14.43	-17.74	-21.12	-24.36	-27.2	-29.42	-30.82	-31.22	-30.46	-28.51	-25.52	-21.78	-17.7	-13.56	-9.52	-5.53	-1.49	2.58	6.46	9.82	12.35	13.99	14.94	15.53	16.07	16.65	17.13	17.32	17.15	16.74	16.3	15.98	15.81	15.62	15.23	14.51	13.49	12.27	10.92	9.39	7.54	5.22	2.4	-0.7	-3.86	-6.82	-9.5	-12	-14.53	-17.31	-20.46	-23.93	-27.54	-30.94	-33.67	-35.3	-35.42	-33.87	-30.76	-26.48	-21.56	-16.53	-11.69	-7.16	-2.94	1.02	4.67	7.92	10.68	12.94	14.72	16.09	17.11	17.78	18.15	18.29	18.31	18.35	18.47	18.69	18.96	19.23	19.43	19.54	19.48	19.15	18.37	17.02	15.05	12.56	9.76
17.32	17.15	16.74	16.3	15.98	15.81	15.62	15.23	14.51	13.49	12.27	10.92	9.39	7.54	5.22	2.4	-0.7	-3.86	-6.82	-9.5	-12	-14.53	-17.31	-20.46	-23.93	-27.54	-30.94	-33.67	-35.3	-35.42	-33.87	-30.76	-26.48	-21.56	-16.53	-11.69	-7.16	-2.94	1.02	4.67	7.92	10.68	12.94	14.72	16.09	17.11	17.78	18.15	18.29	18.31	18.35	18.47	18.69	18.96	19.23	19.43	19.54	19.48	19.15	18.37	17.02	15.05	12.56	9.76	6.94	4.3	1.96	-0.14	-2.12	-4.19	-6.5	-9.13	-12.09	-15.34	-18.8	-22.39	-25.95	-29.21	-31.84	-33.48	-33.79	-32.62	-30	-26.13	-21.35	-16.04	-10.55	-5.19	-0.16	4.41	8.45	11.93	14.8	16.95	18.27	18.75	18.54	17.98	17.49	17.4	17.79	18.41	18.81	18.59	17.63	16.16	14.61	13.33	12.44	11.71	10.69	9.05	6.69	3.93	1.27	-0.82	-2.22	-3.14	-4.05	-5.44	-7.51	-10.19	-13.17	-16.22	-19.19	-22.12	-25.05	-27.81
6.94	4.3	1.96	-0.14	-2.12	-4.19	-6.5	-9.13	-12.09	-15.34	-18.8	-22.39	-25.95	-29.21	-31.84	-33.48	-33.79	-32.62	-30	-26.13	-21.35	-16.04	-10.55	-5.19	-0.16	4.41	8.45	11.93	14.8	16.95	18.27	18.75	18.54	17.98	17.49	17.4	17.79	18.41	18.81	18.59	17.63	16.16	14.61	13.33	12.44	11.71	10.69	9.05	6.69	3.93	1.27	-0.82	-2.22	-3.14	-4.05	-5.44	-7.51	-10.19	-13.17	-16.22	-19.19	-22.12	-25.05	-27.81	-30.03	-31.16	-30.81	-28.85	-25.54	-21.44	-17.13	-13.07	-9.4	-5.95	-2.46	1.26	5.14	8.84	11.92	14.04	15.16	15.57	15.7	15.92	16.33	16.75	16.93	16.73	16.19	15.57	15.1	14.77	14.39	13.6	12.17	10.08	7.61	5.11	2.85	0.86	-1.11	-3.34	-6.03	-9.14	-12.43	-15.61	-18.52	-21.18	-23.78	-26.42	-29.01	-31.17	-32.3	-31.83	-29.41	-25.13	-19.46	-13.13	-6.85	-1.14	3.75	7.83	11.2	13.95	16.14	17.81	19.02	19.85
-30.03	-31.16	-30.81	-28.85	-25.54	-21.44	-17.13	-13.07	-9.4	-5.95	-2.46	1.26	5.14	8.84	11.92	14.04	15.16	15.57	15.7	15.92	16.33	16.75	16.93	16.73	16.19	15.57	15.1	14.77	14.39	13.6	12.17	10.08	7.61	5.11	2.85	0.86	-1.11	-3.34	-6.03	-9.14	-12.43	-15.61	-18.52	-21.18	-23.78	-26.42	-29.01	-31.17	-32.3	-31.83	-29.41	-25.13	-19.46	-13.13	-6.85	-1.14	3.75	7.83	11.2	13.95	16.14	17.81	19.02	19.85	20.39	20.7	20.84	20.83	20.63	20.2	19.45	18.29	16.76	15.01	13.25	11.7	10.43	9.35	8.22	6.74	4.69	2.06	-1.01	-4.28	-7.54	-10.71	-13.87	-17.18	-20.8	-24.7	-28.56	-31.89	-34.13	-34.86	-33.96	-31.54	-27.84	-23.18	-17.88	-12.22	-6.53	-1.1	3.84	8.15	11.74	14.61	16.75	18.22	19.16	19.79	20.27	20.64	20.83	20.74	20.33	19.78	19.33	19.24	19.55	20.06	20.41	20.18	19.05	16.92	13.89	10.24	6.3	2.43
20.39	20.7	20.84	20.83	20.63	20.2	19.45	18.29	16.76	15.01	13.25	11.7	10.43	9.35	8.22	6.74	4.69	2.06	-1.01	-4.28	-7.54	-10.71	-13.87	-17.18	-20.8	-24.7	-28.56	-31.89	-34.13	-34.86	-33.96	-31.54	-27.84	-23.18	-17.88	-12.22	-6.53	-1.1	3.84	8.15	11.74	14.61	16.75	18.22	19.16	19.79	20.27	20.64	20.83	20.74	20.33	19.78	19.33	19.24	19.55	20.06	20.41	20.18	19.05	16.92	13.89	10.24	6.3	2.43	-1.14	-4.24	-6.86	-9.06	-11.02	-13	-15.32	-18.2	-21.74	-25.71	-29.54	-32.46	-33.76	-33.04	-30.38	-26.27	-21.35	-16.11	-10.79	-5.35	0.31	6.17	11.89	16.9	20.58	22.55	22.84	21.92	20.52	19.35	18.8	18.8	18.99	18.94	18.45	17.6	16.68	15.93	15.33	14.65	13.56	11.95	9.9	7.71	5.58	3.58	1.53	-0.74	-3.29	-5.96	-8.51	-10.8	-12.87	-14.98	-17.43	-20.39	-23.81	-27.38	-30.59	-32.89	-33.79	-33.02	-30.52	-26.46
-1.14	-4.24	-6.86	-9.06	-11.02	-13	-15.32	-18.2	-21.74	-25.71	-29.54	-32.46	-33.76	-33.04	-30.38	-26.27	-21.35	-16.11	-10.79	-5.35	0.31	6.17	11.89	16.9	20.58	22.55	22.84	21.92	20.52	19.35	18.8	18.8	18.99	18.94	18.45	17.6	16.68	15.93	15.33	14.65	13.56	11.95	9.9	7.71	5.58	3.58	1.53	-0.74	-3.29	-5.96	-8.51	-10.8	-12.87	-14.98	-17.43	-20.39	-23.81	-27.38	-30.59	-32.89	-33.79	-33.02	-30.52	-26.46	-21.22	-15.26	-9.11	-3.25	1.93	6.16	9.39	11.75	13.51	14.98	16.38	17.78	19.13	20.23	20.94	21.19	21.01	20.54	19.95	19.39	18.96	18.68	18.51	18.3	17.89	17.1	15.77	13.87	11.46	8.7	5.78	2.95	0.33	-2.03	-4.21	-6.37	-8.7	-11.35	-14.39	-17.71	-21.1	-24.24	-26.83	-28.6	-29.33	-28.88	-27.14	-24.14	-20.09	-15.38	-10.39	-5.5	-0.96	3.13	6.7	9.72	12.16	14.06	15.53	16.74	17.84	18.83	19.56	19.85
-21.22	-15.26	-9.11	-3.25	1.93	6.16	9.39	11.75	13.51	14.98	16.38	17.78	19.13	20.23	20.94	21.19	21.01	20.54	19.95	19.39	18.96	18.68	18.51	18.3	17.89	17.1	15.77	13.87	11.46	8.7	5.78	2.95	0.33	-2.03	-4.21	-6.37	-8.7	-11.35	-14.39	-17.71	-21.1	-24.24	-26.83	-28.6	-29.33	-28.88	-27.14	-24.14	-20.09	-15.38	-10.39	-5.5	-0.96	3.13	6.7	9.72	12.16	14.06	15.53	16.74	17.84	18.83	19.56	19.85	19.63	19.03	18.33	17.73	17.32	17	16.58	15.95	15.08	13.97	12.62	10.99	8.99	6.62	3.95	1.12	-1.68	-4.34	-6.85	-9.28	-11.73	-14.31	-17.1	-20.15	-23.4	-26.68	-29.56	-31.53	-32.01	-30.62	-27.35	-22.53	-16.8	-10.84	-5.19	-0.12	4.3	8.13	11.4	13.98	15.75	16.58	16.56	15.99	15.27	14.79	14.75	15.07	15.43	15.47	14.96	13.95	12.73	11.68	11	10.59	10.09	9.1	7.42	5.13	2.51	-0.11	-2.55	-4.84
19.63	19.03	18.33	17.73	17.32	17	16.58	15.95	15.08	13.97	12.62	10.99	8.99	6.62	3.95	1.12	-1.68	-4.34	-6.85	-9.28	-11.73	-14.31	-17.1	-20.15	-23.4	-26.68	-29.56	-31.53	-32.01	-30.62	-27.35	-22.53	-16.8	-10.84	-5.19	-0.12	4.3	8.13	11.4	13.98	15.75	16.58	16.56	15.99	15.27	14.79	14.75	15.07	15.43	15.47	14.96	13.95	12.73	11.68	11	10.59	10.09	9.1	7.42	5.13	2.51	-0.11	-2.55	-4.84	-7.1	-9.45	-11.9	-14.39	-16.91	-19.53	-22.36	-25.36	-28.24	-30.46	-31.41	-30.67	-28.26	-24.6	-20.4	-16.23	-12.36	-8.66	-4.81	-0.52	4.14	8.83	12.98	16.12	18.01	18.79	18.91	18.87	19.08	19.62	20.4	21.17	21.66	21.76	21.45	20.8	19.92	18.85	17.61	16.15	14.43	12.42	10.14	7.65	5.09	2.59	0.24	-1.96	-4.06	-6.21	-8.55	-11.11	-13.94	-17.03	-20.4	-23.94	-27.42	-30.39	-32.34	-32.86	-31.83	-29.44	-26.06	-22.05
-7.1	-9.45	-11.9	-14.39	-16.91	-19.53	-22.36	-25.36	-28.24	-30.46	-31.41	-30.67	-28.26	-24.6	-20.4	-16.23	-12.36	-8.66	-4.81	-0.52	4.14	8.83	12.98	16.12	18.01	18.79	18.91	18.87	19.08	19.62	20.4	21.17	21.66	21.76	21.45	20.8	19.92	18.85	17.61	16.15	14.43	12.42	10.14	7.65	5.09	2.59	0.24	-1.96	-4.06	-6.21	-8.55	-11.11	-13.94	-17.03	-20.4	-23.94	-27.42	-30.39	-32.34	-32.86	-31.83	-29.44	-26.06	-22.05	-17.6	-12.73	-7.44	-1.89	3.54	8.36	12.16	14.71	16.09	16.58	16.57	16.44	16.48	16.86	17.52	18.23	18.7	18.75	18.4	17.89	17.47	17.22	16.94	16.29	14.99	13.07	10.85	8.73	7.01	5.62	4.24	2.47	0.14	-2.64	-5.53	-8.18	-10.47	-12.55	-14.78	-17.44	-20.58	-23.95	-27.1	-29.56	-30.99	-31.21	-30.16	-27.84	-24.25	-19.53	-13.98	-8.06	-2.33	2.7	6.74	9.7	11.73	13.04	13.9	14.53	15.05	15.56	16.06	16.51
-17.6	-12.73	-7.44	-1.89	3.54	8.36	12.16	14.71	16.09	16.58	16.57	16.44	16.48	16.86	17.52	18.23	18.7	18.75	18.4	17.89	17.47	17.22	16.94	16.29	14.99	13.07	10.85	8.73	7.01	5.62	4.24	2.47	0.14	-2.64	-5.53	-8.18	-10.47	-12.55	-14.78	-17.44	-20.58	-23.95	-27.1	-29.56	-30.99	-31.21	-30.16	-27.84	-24.25	-19.53	-13.98	-8.06	-2.33	2.7	6.74	9.7	11.73	13.04	13.9	14.53	15.05	15.56	16.06	16.51	16.85	16.97	16.79	16.28	15.46	14.45	13.36	12.33	11.4	10.56	9.72	8.78	7.63	6.24	4.66	2.99	1.32	-0.29	-1.89	-3.62	-5.76	-8.52	-12.03	-16.11	-20.38	-24.29	-27.22	-28.71	-28.48	-26.49	-22.91	-18.11	-12.63	-7.03	-1.82	2.67	6.3	9.15	11.35	13.03	14.29	15.2	15.81	16.19	16.42	16.47	16.31	15.94	15.38	14.74	14.16	13.7	13.33	12.91	12.2	11.05	9.39	7.26	4.81	2.26	-0.19	-2.39	-4.3	-6.01
16.85	16.97	16.79	16.28	15.46	14.45	13.36	12.33	11.4	10.56	9.72	8.78	7.63	6.24	4.66	2.99	1.32	-0.29	-1.89	-3.62	-5.76	-8.52	-12.03	-16.11	-20.38	-24.29	-27.22	-28.71	-28.48	-26.49	-22.91	-18.11	-12.63	-7.03	-1.82	2.67	6.3	9.15	11.35	13.03	14.29	15.2	15.81	16.19	16.42	16.47	16.31	15.94	15.38	14.74	14.16	13.7	13.33	12.91	12.2	11.05	9.39	7.26	4.81	2.26	-0.19	-2.39	-4.3	-6.01	-7.64	-9.33	-11.14	-13.08	-15.19	-17.5	-20.07	-22.85	-25.59	-27.81	-28.89	-28.31	-25.89	-21.86	-16.8	-11.36	-6.02	-0.94	3.85	8.35	12.32	15.38	17.19	17.69	17.25	16.46	15.88	15.81	16.13	16.52	16.64	16.38	15.83	15.17	14.43	13.6	12.6	11.42	10.21	9.15	8.3	7.53	6.52	4.96	2.75	0.04	-2.79	-5.35	-7.42	-9.03	-10.47	-12.13	-14.34	-17.29	-20.91	-24.84	-28.53	-31.31	-32.63	-32.25	-30.26	-27.06	-23.12	-18.78
-7.64	-9.33	-11.14	-13.08	-15.19	-17.5	-20.07	-22.85	-25.59	-27.81	-28.89	-28.31	-25.89	-21.86	-16.8	-11.36	-6.02	-0.94	3.85	8.35	12.32	15.38	17.19	17.69	17.25	16.46	15.88	15.81	16.13	16.52	16.64	16.38	15.83	15.17	14.43	13.6	12.6	11.42	10.21	9.15	8.3	7.53	6.52	4.96	2.75	0.04	-2.79	-5.35	-7.42	-9.03	-10.47	-12.13	-14.34	-17.29	-20.91	-24.84	-28.53	-31.31	-32.63	-32.25	-30.26	-27.06	-23.12	-18.78	-14.17	-9.24	-4.01	1.34	6.45	10.87	14.35	16.86	18.54	19.64	20.3	20.58	20.54	20.27	19.94	19.74	19.7	19.72	19.59	19.15	18.35	17.22	15.84	14.25	12.46	10.5	8.44	6.33	4.25	2.19	0.12	-2.02	-4.21	-6.41	-8.53	-10.55	-12.57	-14.8	-17.54	-20.94	-24.93	-29.12	-32.84	-35.33	-35.96	-34.48	-31.11	-26.39	-21.05	-15.66	-10.62	-6.02	-1.81	2.14	5.98	9.71	13.17	16.14	18.36	19.68	20.12	19.95	19.53	19.17
-14.17	-9.24	-4.01	1.34	6.45	10.87	14.35	16.86	18.54	19.64	20.3	20.58	20.54	20.27	19.94	19.74	19.7	19.72	19.59	19.15	18.35	17.22	15.84	14.25	12.46	10.5	8.44	6.33	4.25	2.19	0.12	-2.02	-4.21	-6.41	-8.53	-10.55	-12.57	-14.8	-17.54	-20.94	-24.93	-29.12	-32.84	-35.33	-35.96	-34.48	-31.11	-26.39	-21.05	-15.66	-10.62	-6.02	-1.81	2.14	5.98	9.71	13.17	16.14	18.36	19.68	20.12	19.95	19.53	19.17	19.07	19.2	19.35	19.22	18.58	17.41	15.88	14.28	12.88	11.72	10.62	9.26	7.37	4.9	2.11	-0.59	-2.82	-4.47	-5.7	-6.85	-8.31	-10.33	-13	-16.24	-19.88	-23.6	-27.04	-29.73	-31.29	-31.4	-29.93	-26.97	-22.83	-17.99	-12.9	-7.94	-3.29	1.03	5.01	8.57	11.52	13.65	14.86	15.33	15.41	15.49	15.8	16.23	16.48	16.15	15.12	13.6	12.07	11	10.64	10.85	11.19	11.08	10.12	8.25	5.76	3.22	1.12	-0.32
19.07	19.2	19.35	19.22	18.58	17.41	15.88	14.28	12.88	11.72	10.62	9.26	7.37	4.9	2.11	-0.59	-2.82	-4.47	-5.7	-6.85	-8.31	-10.33	-13	-16.24	-19.88	-23.6	-27.04	-29.73	-31.29	-31.4	-29.93	-26.97	-22.83	-17.99	-12.9	-7.94	-3.29	1.03	5.01	8.57	11.52	13.65	14.86	15.33	15.41	15.49	15.8	16.23	16.48	16.15	15.12	13.6	12.07	11	10.64	10.85	11.19	11.08	10.12	8.25	5.76	3.22	1.12	-0.32	-1.3	-2.27	-3.77	-6.06	-9.12	-12.7	-16.52	-20.41	-24.22	-27.69	-30.39	-31.67	-31.05	-28.46	-24.36	-19.56	-14.81	-10.49	-6.51	-2.51	1.79	6.29	10.57	14.07	16.42	17.57	17.79	17.47	16.94	16.37	15.82	15.34	15	14.83	14.86	14.98	14.99	14.68	13.88	12.48	10.55	8.23	5.75	3.32	1.13	-0.81	-2.55	-4.24	-6.05	-8.15	-10.68	-13.69	-17.21	-21.08	-24.99	-28.48	-30.97	-32.05	-31.59	-29.78	-26.99	-23.64	-19.92	-15.86
-1.3	-2.27	-3.77	-6.06	-9.12	-12.7	-16.52	-20.41	-24.22	-27.69	-30.39	-31.67	-31.05	-28.46	-24.36	-19.56	-14.81	-10.49	-6.51	-2.51	1.79	6.29	10.57	14.07	16.42	17.57	17.79	17.47	16.94	16.37	15.82	15.34	15	14.83	14.86	14.98	14.99	14.68	13.88	12.48	10.55	8.23	5.75	3.32	1.13	-0.81	-2.55	-4.24	-6.05	-8.15	-10.68	-13.69	-17.21	-21.08	-24.99	-28.48	-30.97	-32.05	-31.59	-29.78	-26.99	-23.64	-19.92	-15.86	-11.33	-6.33	-1.04	4.15	8.72	12.32	14.8	16.37	17.4	18.28	19.26	20.35	21.46	22.41	23.04	23.26	23.01	22.25	20.98	19.29	17.36	15.41	13.63	12.05	10.55	8.92	6.93	4.51	1.8	-0.97	-3.6	-6.01	-8.38	-10.98	-14.12	-17.88	-22.12	-26.43	-30.27	-33.15	-34.76	-34.92	-33.65	-31.01	-27.15	-22.36	-17	-11.52	-6.27	-1.43	3.01	7.13	10.92	14.22	16.72	18.22	18.77	18.72	18.55	18.67	19.14	19.71	20.02	19.82
-11.33	-6.33	-1.04	4.15	8.72	12.32	14.8	16.37	17.4	18.28	19.26	20.35	21.46	22.41	23.04	23.26	23.01	22.25	20.98	19.29	17.36	15.41	13.63	12.05	10.55	8.92	6.93	4.51	1.8	-0.97	-3.6	-6.01	-8.38	-10.98	-14.12	-17.88	-22.12	-26.43	-30.27	-33.15	-34.76	-34.92	-33.65	-31.01	-27.15	-22.36	-17	-11.52	-6.27	-1.43	3.01	7.13	10.92	14.22	16.72	18.22	18.77	18.72	18.55	18.67	19.14	19.71	20.02	19.82	19.14	18.19	17.32	16.71	16.35	16.04	15.52	14.51	12.91	10.77	8.26	5.61	2.99	0.55	-1.74	-3.93	-6.16	-8.62	-11.47	-14.81	-18.65	-22.8	-26.8	-30.04	-31.91	-32.05	-30.47	-27.56	-23.84	-19.76	-15.58	-11.35	-7.09	-2.85	1.32	5.31	8.98	12.17	14.7	16.4	17.26	17.37	17.02	16.5	16.01	15.55	15.08	14.61	14.28	14.3	14.72	15.31	15.55	14.95	13.27	10.69	7.72	4.88	2.45	0.37	-1.68	-4.03	-6.82	-9.99
19.14	18.19	17.32	16.71	16.35	16.04	15.52	14.51	12.91	10.77	8.26	5.61	2.99	0.55	-1.74	-3.93	-6.16	-8.62	-11.47	-14.81	-18.65	-22.8	-26.8	-30.04	-31.91	-32.05	-30.47	-27.56	-23.84	-19.76	-15.58	-11.35	-7.09	-2.85	1.32	5.31	8.98	12.17	14.7	16.4	17.26	17.37	17.02	16.5	16.01	15.55	15.08	14.61	14.28	14.3	14.72	15.31	15.55	14.95	13.27	10.69	7.72	4.88	2.45	0.37	-1.68	-4.03	-6.82	-9.99	-13.32	-16.61	-19.7	-22.51	-24.9	-26.7	-27.65	-27.55	-26.28	-23.84	-20.38	-16.13	-11.37	-6.37	-1.34	3.49	7.89	11.61	14.36	15.93	16.32	15.78	14.84	14.09	13.98	14.57	15.6	16.61	17.22	17.31	17.01	16.56	16.06	15.41	14.35	12.66	10.32	7.49	4.51	1.66	-0.88	-3.11	-5.1	-6.98	-8.91	-11.06	-13.6	-16.6	-19.95	-23.3	-26.14	-28	-28.59	-27.86	-25.94	-23.05	-19.39	-15.08	-10.31	-5.31	-0.43	3.95	7.52	10.15
-13.32	-16.61	-19.7	-22.51	-24.9	-26.7	-27.65	-27.55	-26.28	-23.84	-20.38	-16.13	-11.37	-6.37	-1.34	3.49	7.89	11.61	14.36	15.93	16.32	15.78	14.84	14.09	13.98	14.57	15.6	16.61	17.22	17.31	17.01	16.56	16.06	15.41	14.35	12.66	10.32	7.49	4.51	1.66	-0.88	-3.11	-5.1	-6.98	-8.91	-11.06	-13.6	-16.6	-19.95	-23.3	-26.14	-28	-28.59	-27.86	-25.94	-23.05	-19.39	-15.08	-10.31	-5.31	-0.43	3.95	7.52	10.15	11.88	12.93	13.59	14.1	14.63	15.19	15.7	16.07	16.23	16.15	15.86	15.4	14.8	14.09	13.29	12.35	11.23	9.84	8.14	6.17	4.02	1.8	-0.43	-2.7	-5.15	-7.88	-10.96	-14.37	-17.98	-21.7	-25.3	-28.53	-31	-32.3	-32.09	-30.25	-26.92	-22.44	-17.25	-11.81	-6.45	-1.45	3.07	7.07	10.52	13.38	15.54	16.96	17.62	17.7	17.5	17.34	17.41	17.67	17.92	17.89	17.5	16.87	16.24	15.77	15.51	15.27	14.73	13.64
11.88	12.93	13.59	14.1	14.63	15.19	15.7	16.07	16.23	16.15	15.86	15.4	14.8	14.09	13.29	12.35	11.23	9.84	8.14	6.17	4.02	1.8	-0.43	-2.7	-5.15	-7.88	-10.96	-14.37	-17.98	-21.7	-25.3	-28.53	-31	-32.3	-32.09	-30.25	-26.92	-22.44	-17.25	-11.81	-6.45	-1.45	3.07	7.07	10.52	13.38	15.54	16.96	17.62	17.7	17.5	17.34	17.41	17.67	17.92	17.89	17.5	16.87	16.24	15.77	15.51	15.27	14.73	13.64	11.84	9.35	6.38	3.24	0.26	-2.33	-4.48	-6.33	-8.13	-10.17	-12.68	-15.69	-19.12	-22.71	-26.13	-28.95	-30.79	-31.31	-30.36	-28	-24.49	-20.12	-15.17	-9.87	-4.43	0.82	5.49	9.2	11.72	13.14	13.79	14.16	14.69	15.62	16.9	18.25	19.31	19.76	19.51	18.77	17.94	17.42	17.33	17.39	17.13	16.08	14.12	11.56	8.93	6.63	4.74	3.05	1.24	-0.84	-3.06	-5.21	-7.13	-8.95	-11.05	-13.81	-17.33	-21.32	-25.14	-28.05
11.84	9.35	6.38	3.24	0.26	-2.33	-4.48	-6.33	-8.13	-10.17	-12.68	-15.69	-19.12	-22.71	-26.13	-28.95	-30.79	-31.31	-30.36	-28	-24.49	-20.12	-15.17	-9.87	-4.43	0.82	5.49	9.2	11.72	13.14	13.79	14.16	14.69	15.62	16.9	18.25	19.31	19.76	19.51	18.77	17.94	17.42	17.33	17.39	17.13	16.08	14.12	11.56	8.93	6.63	4.74	3.05	1.24	-0.84	-3.06	-5.21	-7.13	-8.95	-11.05	-13.81	-17.33	-21.32	-25.14	-28.05	-29.48	-29.24	-27.45	-24.49	-20.77	-16.59	-12.18	-7.62	-2.97	1.7	6.27	10.58	14.46	17.62	19.8	20.82	20.72	19.84	18.66	17.7	17.3	17.45	17.91	18.27	18.22	17.62	16.53	15.09	13.49	11.85	10.21	8.56	6.83	4.95	2.87	0.61	-1.74	-4.11	-6.46	-8.84	-11.43	-14.39	-17.78	-21.5	-25.19	-28.33	-30.42	-31.09	-30.2	-27.88	-24.46	-20.35	-15.91	-11.35	-6.81	-2.36	1.89	5.77	9.06	11.63	13.5	14.84	15.88	16.74
-29.48	-29.24	-27.45	-24.49	-20.77	-16.59	-12.18	-7.62	-2.97	1.7	6.27	10.58	14.46	17.62	19.8	20.82	20.72	19.84	18.66	17.7	17.3	17.45	17.91	18.27	18.22	17.62	16.53	15.09	13.49	11.85	10.21	8.56	6.83	4.95	2.87	0.61	-1.74	-4.11	-6.46	-8.84	-11.43	-14.39	-17.78	-21.5	-25.19	-28.33	-30.42	-31.09	-30.2	-27.88	-24.46	-20.35	-15.91	-11.35	-6.81	-2.36	1.89	5.77	9.06	11.63	13.5	14.84	15.88	16.74	17.42	17.82	17.81	17.43	16.85	16.35	16.13	16.19	16.23	15.88	14.85	13.12	10.95	8.71	6.63	4.65	2.59	0.24	-2.3	-4.78	-6.87	-8.48	-9.92	-11.72	-14.42	-18.18	-22.74	-27.37	-31.28	-33.78	-34.46	-33.3	-30.52	-26.5	-21.68	-16.43	-11.01	-5.59	-0.34	4.56	8.86	12.34	14.88	16.5	17.4	17.84	18.1	18.32	18.5	18.56	18.37	17.94	17.31	16.64	15.97	15.25	14.33	13.07	11.44	9.53	7.49	5.5	3.6	1.77
17.42	17.82	17.81	17.43	16.85	16.35	16.13	16.19	16.23	15.88	14.85	13.12	10.95	8.71	6.63	4.65	2.59	0.24	-2.3	-4.78	-6.87	-8.48	-9.92	-11.72	-14.42	-18.18	-22.74	-27.37	-31.28	-33.78	-34.46	-33.3	-30.52	-26.5	-21.68	-16.43	-11.01	-5.59	-0.34	4.56	8.86	12.34	14.88	16.5	17.4	17.84	18.1	18.32	18.5	18.56	18.37	17.94	17.31	16.64	15.97	15.25	14.33	13.07	11.44	9.53	7.49	5.5	3.6	1.77	-0.08	-1.98	-3.93	-5.9	-7.87	-9.84	-11.87	-13.99	-16.25	-18.71	-21.37	-24.13	-26.67	-28.53	-29.19	-28.29	-25.79	-21.99	-17.47	-12.73	-8.11	-3.68	0.63	4.79	8.64	11.87	14.25	15.68	16.32	16.52	16.59	16.75	17.05	17.41	17.79	18.15	18.46	18.65	18.57	18.06	17.04	15.5	13.61	11.52	9.37	7.26	5.22	3.33	1.6	0.09	-1.27	-2.6	-4.08	-5.87	-8.01	-10.5	-13.33	-16.49	-19.94	-23.48	-26.76	-29.25	-30.44	-30.01
-0.08	-1.98	-3.93	-5.9	-7.87	-9.84	-11.87	-13.99	-16.25	-18.71	-21.37	-24.13	-26.67	-28.53	-29.19	-28.29	-25.79	-21.99	-17.47	-12.73	-8.11	-3.68	0.63	4.79	8.64	11.87	14.25	15.68	16.32	16.52	16.59	16.75	17.05	17.41	17.79	18.15	18.46	18.65	18.57	18.06	17.04	15.5	13.61	11.52	9.37	7.26	5.22	3.33	1.6	0.09	-1.27	-2.6	-4.08	-5.87	-8.01	-10.5	-13.33	-16.49	-19.94	-23.48	-26.76	-29.25	-30.44	-30.01	-27.89	-24.37	-19.91	-15.02	-10.11	-5.44	-1.05	3.12	7.12	10.89	14.2	16.79	18.42	19.06	19	18.68	18.47	18.51	18.62	18.49	17.95	17.09	16.17	15.48	15.06	14.65	13.86	12.34	10.02	7.12	4.03	1.09	-1.51	-3.76	-5.73	-7.45	-8.91	-10.15	-11.3	-12.64	-14.49	-17.05	-20.23	-23.58	-26.36	-27.85	-27.58	-25.53	-22.11	-17.95	-13.62	-9.41	-5.37	-1.4	2.53	6.35	9.79	12.62	14.72	16.15	16.98	17.39	17.48	17.38
-27.89	-24.37	-19.91	-15.02	-10.11	-5.44	-1.05	3.12	7.12	10.89	14.2	16.79	18.42	19.06	19	18.68	18.47	18.51	18.62	18.49	17.95	17.09	16.17	15.48	15.06	14.65	13.86	12.34	10.02	7.12	4.03	1.09	-1.51	-3.76	-5.73	-7.45	-8.91	-10.15	-11.3	-12.64	-14.49	-17.05	-20.23	-23.58	-26.36	-27.85	-27.58	-25.53	-22.11	-17.95	-13.62	-9.41	-5.37	-1.4	2.53	6.35	9.79	12.62	14.72	16.15	16.98	17.39	17.48	17.38	17.22	17.13	17.11	17.02	16.65	15.85	14.68	13.4	12.3	11.48	10.7	9.57	7.78	5.31	2.44	-0.43	-3.02	-5.31	-7.45	-9.61	-11.91	-14.37	-17.04	-20.04	-23.41	-26.99	-30.24	-32.34	-32.52	-30.4	-26.24	-20.79	-15.03	-9.72	-5.21	-1.5	1.7	4.61	7.35	9.86	12	13.65	14.76	15.3	15.36	15.04	14.48	13.85	13.33	13.01	12.89	12.87	12.78	12.49	11.88	10.92	9.63	8.09	6.36	4.52	2.58	0.59	-1.41	-3.42
17.22	17.13	17.11	17.02	16.65	15.85	14.68	13.4	12.3	11.48	10.7	9.57	7.78	5.31	2.44	-0.43	-3.02	-5.31	-7.45	-9.61	-11.91	-14.37	-17.04	-20.04	-23.41	-26.99	-30.24	-32.34	-32.52	-30.4	-26.24	-20.79	-15.03	-9.72	-5.21	-1.5	1.7	4.61	7.35	9.86	12	13.65	14.76	15.3	15.36	15.04	14.48	13.85	13.33	13.01	12.89	12.87	12.78	12.49	11.88	10.92	9.63	8.09	6.36	4.52	2.58	0.59	-1.41	-3.42	-5.43	-7.51	-9.86	-12.67	-16.05	-19.96	-23.99	-27.58	-30.05	-30.87	-29.81	-27.04	-22.96	-18.13	-13.02	-8.01	-3.33	0.9	4.62	7.8	10.42	12.45	13.92	14.88	15.44	15.75	15.9	15.91	15.72	15.28	14.66	14.04	13.67	13.72	14.1	14.4	14.13	12.88	10.61	7.64	4.46	1.52	-1	-3.14	-5.1	-7.05	-9.05	-11.1	-13.25	-15.56	-18.1	-20.83	-23.5	-25.69	-26.93	-26.85	-25.29	-22.32	-18.18	-13.25	-8.01	-2.96	1.53	5.21
-5.43	-7.51	-9.86	-12.67	-16.05	-19.96	-23.99	-27.58	-30.05	-30.87	-29.81	-27.04	-22.96	-18.13	-13.02	-8.01	-3.33	0.9	4.62	7.8	10.42	12.45	13.92	14.88	15.44	15.75	15.9	15.91	15.72	15.28	14.66	14.04	13.67	13.72	14.1	14.4	14.13	12.88	10.61	7.64	4.46	1.52	-1	-3.14	-5.1	-7.05	-9.05	-11.1	-13.25	-15.56	-18.1	-20.83	-23.5	-25.69	-26.93	-26.85	-25.29	-22.32	-18.18	-13.25	-8.01	-2.96	1.53	5.21	8.01	10.02	11.43	12.4	13.07	13.55	13.91	14.25	14.62	15.04	15.42	15.63	15.54	15.06	14.24	13.19	12.14	11.16	10.16	8.86	6.97	4.37	1.24	-1.93	-4.64	-6.67	-8.27	-10.01	-12.49	-15.94	-20.07	-24.21	-27.63	-29.83	-30.72	-30.38	-28.92	-26.32	-22.48	-17.45	-11.61	-5.56	-0.03	4.51	7.96	10.51	12.59	14.49	16.35	18.06	19.39	20.11	20.11	19.39	18.1	16.51	14.92	13.63	12.8	12.41	12.27	12.04	11.44	10.25
8.01	10.02	11.43	12.4	13.07	13.55	13.91	14.25	14.62	15.04	15.42	15.63	15.54	15.06	14.24	13.19	12.14	11.16	10.16	8.86	6.97	4.37	1.24	-1.93	-4.64	-6.67	-8.27	-10.01	-12.49	-15.94	-20.07	-24.21	-27.63	-29.83	-30.72	-30.38	-28.92	-26.32	-22.48	-17.45	-11.61	-5.56	-0.03	4.51	7.96	10.51	12.59	14.49	16.35	18.06	19.39	20.11	20.11	19.39	18.1	16.51	14.92	13.63	12.8	12.41	12.27	12.04	11.44	10.25	8.42	6.02	3.22	0.29	-2.59	-5.3	-7.89	-10.49	-13.27	-16.36	-19.78	-23.32	-26.63	-29.22	-30.56	-30.33	-28.44	-25.09	-20.69	-15.78	-10.76	-5.93	-1.43	2.66	6.27	9.33	11.8	13.72	15.22	16.48	17.55	18.44	19.06	19.34	19.28	18.98	18.52	17.97	17.35	16.61	15.74	14.66	13.29	11.53	9.28	6.54	3.45	0.31	-2.63	-5.21	-7.5	-9.78	-12.42	-15.62	-19.36	-23.32	-27.01	-29.93	-31.67	-32.01	-30.87	-28.33	-24.6	-20.05
8.42	6.02	3.22	0.29	-2.59	-5.3	-7.89	-10.49	-13.27	-16.36	-19.78	-23.32	-26.63	-29.22	-30.56	-30.33	-28.44	-25.09	-20.69	-15.78	-10.76	-5.93	-1.43	2.66	6.27	9.33	11.8	13.72	15.22	16.48	17.55	18.44	19.06	19.34	19.28	18.98	18.52	17.97	17.35	16.61	15.74	14.66	13.29	11.53	9.28	6.54	3.45	0.31	-2.63	-5.21	-7.5	-9.78	-12.42	-15.62	-19.36	-23.32	-27.01	-29.93	-31.67	-32.01	-30.87	-28.33	-24.6	-20.05	-15.09	-10.14	-5.48	-1.19	2.73	6.39	9.83	12.96	15.61	17.62	18.93	19.69	20.1	20.39	20.66	20.84	20.74	20.19	19.11	17.59	15.81	14	12.29	10.72	9.18	7.51	5.62	3.5	1.29	-0.78	-2.52	-3.9	-5.07	-6.39	-8.26	-10.92	-14.35	-18.25	-22.08	-25.37	-27.68	-28.71	-28.32	-26.45	-23.23	-18.99	-14.16	-9.23	-4.54	-0.26	3.67	7.3	10.62	13.45	15.58	16.89	17.47	17.61	17.62	17.71	17.9	18.05	18.03	17.79
-15.09	-10.14	-5.48	-1.19	2.73	6.39	9.83	12.96	15.61	17.62	18.93	19.69	20.1	20.39	20.66	20.84	20.74	20.19	19.11	17.59	15.81	14	12.29	10.72	9.18	7.51	5.62	3.5	1.29	-0.78	-2.52	-3.9	-5.07	-6.39	-8.26	-10.92	-14.35	-18.25	-22.08	-25.37	-27.68	-28.71	-28.32	-26.45	-23.23	-18.99	-14.16	-9.23	-4.54	-0.26	3.67	7.3	10.62	13.45	15.58	16.89	17.47	17.61	17.62	17.71	17.9	18.05	18.03	17.79	17.44	17.12	16.89	16.64	16.1	15	13.25	10.99	8.55	6.29	4.43	2.96	1.68	0.38	-1.19	-3.18	-5.68	-8.75	-12.37	-16.44	-20.69	-24.75	-28.17	-30.53	-31.5	-30.82	-28.48	-24.65	-19.71	-14.22	-8.69	-3.51	1.21	5.51	9.47	13.01	15.91	17.9	18.89	19.06	18.82	18.57	18.56	18.71	18.74	18.37	17.54	16.46	15.53	15.02	14.92	14.87	14.34	12.87	10.36	7.07	3.55	0.37	-2.12	-3.83	-4.96	-5.91	-7.13	-9.04
17.44	17.12	16.89	16.64	16.1	15	13.25	10.99	8.55	6.29	4.43	2.96	1.68	0.38	-1.19	-3.18	-5.68	-8.75	-12.37	-16.44	-20.69	-24.75	-28.17	-30.53	-31.5	-30.82	-28.48	-24.65	-19.71	-14.22	-8.69	-3.51	1.21	5.51	9.47	13.01	15.91	17.9	18.89	19.06	18.82	18.57	18.56	18.71	18.74	18.37	17.54	16.46	15.53	15.02	14.92	14.87	14.34	12.87	10.36	7.07	3.55	0.37	-2.12	-3.83	-4.96	-5.91	-7.13	-9.04	-11.82	-15.45	-19.63	-23.82	-27.46	-30.14	-31.61	-31.77	-30.66	-28.29	-24.74	-20.18	-14.9	-9.28	-3.72	1.44	5.95	9.65	12.49	14.55	15.98	17.04	17.93	18.72	19.38	19.85	20.03	19.97	19.73	19.36	18.9	18.36	17.77	17.17	16.53	15.73	14.58	12.83	10.37	7.27	3.8	0.25	-3.04	-5.88	-8.26	-10.31	-12.27	-14.45	-17.1	-20.29	-23.86	-27.41	-30.42	-32.45	-33.21	-32.57	-30.51	-27.11	-22.52	-17.03	-11.11	-5.28	0.01	4.53
-11.82	-15.45	-19.63	-23.82	-27.46	-30.14	-31.61	-31.77	-30.66	-28.29	-24.74	-20.18	-14.9	-9.28	-3.72	1.44	5.95	9.65	12.49	14.55	15.98	17.04	17.93	18.72	19.38	19.85	20.03	19.97	19.73	19.36	18.9	18.36	17.77	17.17	16.53	15.73	14.58	12.83	10.37	7.27	3.8	0.25	-3.04	-5.88	-8.26	-10.31	-12.27	-14.45	-17.1	-20.29	-23.86	-27.41	-30.42	-32.45	-33.21	-32.57	-30.51	-27.11	-22.52	-17.03	-11.11	-5.28	0.01	4.53	8.31	11.49	14.2	16.4	18.02	18.94	19.16	18.92	18.52	18.26	18.28	18.54	18.86	19.06	19.06	18.84	18.41	17.73	16.7	15.25	13.4	11.36	9.35	7.52	5.82	4.05	1.94	-0.6	-3.48	-6.55	-9.66	-12.91	-16.47	-20.41	-24.53	-28.34	-31.25	-32.84	-32.94	-31.69	-29.31	-25.96	-21.79	-16.91	-11.57	-6.12	-0.96	3.64	7.62	11.06	14.05	16.62	18.71	20.18	20.99	21.24	21.15	20.96	20.79	20.64	20.42	20.02	19.43	18.72
8.31	11.49	14.2	16.4	18.02	18.94	19.16	18.92	18.52	18.26	18.28	18.54	18.86	19.06	19.06	18.84	18.41	17.73	16.7	15.25	13.4	11.36	9.35	7.52	5.82	4.05	1.94	-0.6	-3.48	-6.55	-9.66	-12.91	-16.47	-20.41	-24.53	-28.34	-31.25	-32.84	-32.94	-31.69	-29.31	-25.96	-21.79	-16.91	-11.57	-6.12	-0.96	3.64	7.62	11.06	14.05	16.62	18.71	20.18	20.99	21.24	21.15	20.96	20.79	20.64	20.42	20.02	19.43	18.72	17.99	17.3	16.54	15.54	14.14	12.31	10.15	7.83	5.48	3.13	0.74	-1.7	-4.17	-6.6	-8.94	-11.24	-13.67	-16.37	-19.46	-22.88	-26.38	-29.68	-32.44	-34.37	-35.26	-34.92	-33.23	-30.13	-25.74	-20.37	-14.51	-8.68	-3.26	1.52	5.65	9.14	12	14.2	15.76	16.84	17.69	18.52	19.36	20	20.19	19.82	19.06	18.27	17.74	17.47	17.18	16.54	15.39	13.86	12.31	11.03	10.07	9.22	8.11	6.48	4.28	1.67	-1.07	-3.7
17.99	17.3	16.54	15.54	14.14	12.31	10.15	7.83	5.48	3.13	0.74	-1.7	-4.17	-6.6	-8.94	-11.24	-13.67	-16.37	-19.46	-22.88	-26.38	-29.68	-32.44	-34.37	-35.26	-34.92	-33.23	-30.13	-25.74	-20.37	-14.51	-8.68	-3.26	1.52	5.65	9.14	12	14.2	15.76	16.84	17.69	18.52	19.36	20	20.19	19.82	19.06	18.27	17.74	17.47	17.18	16.54	15.39	13.86	12.31	11.03	10.07	9.22	8.11	6.48	4.28	1.67	-1.07	-3.7	-6.13	-8.41	-10.77	-13.51	-16.88	-20.93	-25.43	-29.86	-33.54	-35.82	-36.23	-34.7	-31.47	-27.09	-22.15	-17.14	-12.29	-7.65	-3.16	1.24	5.44	9.23	12.33	14.52	15.78	16.26	16.31	16.27	16.43	16.86	17.43	17.91	18.06	17.75	17.01	16.01	14.98	14.06	13.21	12.26	10.94	9.14	6.88	4.4	2.03	0.03	-1.53	-2.84	-4.17	-5.85	-8.06	-10.83	-14.1	-17.74	-21.56	-25.23	-28.32	-30.34	-30.89	-29.85	-27.37	-23.83	-19.61	-14.99
-6.13	-8.41	-10.77	-13.51	-16.88	-20.93	-25.43	-29.86	-33.54	-35.82	-36.23	-34.7	-31.47	-27.09	-22.15	-17.14	-12.29	-7.65	-3.16	1.24	5.44	9.23	12.33	14.52	15.78	16.26	16.31	16.27	16.43	16.86	17.43	17.91	18.06	17.75	17.01	16.01	14.98	14.06	13.21	12.26	10.94	9.14	6.88	4.4	2.03	0.03	-1.53	-2.84	-4.17	-5.85	-8.06	-10.83	-14.1	-17.74	-21.56	-25.23	-28.32	-30.34	-30.89	-29.85	-27.37	-23.83	-19.61	-14.99	-10.06	-4.96	0.15	4.97	9.2	12.65	15.28	17.27	18.77	19.87	20.57	20.85	20.83	20.72	20.77	21.04	21.37	21.37	20.6	18.89	16.41	13.62	11.04	8.99	7.37	5.81	3.84	1.23	-1.91	-5.24	-8.32	-10.9	-12.94	-14.55	-15.99	-17.51	-19.39	-21.79	-24.75	-28.07	-31.28	-33.82	-35.08	-34.72	-32.65	-29.08	-24.31	-18.72	-12.66	-6.45	-0.43	5.06	9.75	13.47	16.16	17.9	18.85	19.26	19.41	19.54	19.78	20.12	20.46	20.66
-10.06	-4.96	0.15	4.97	9.2	12.65	15.28	17.27	18.77	19.87	20.57	20.85	20.83	20.72	20.77	21.04	21.37	21.37	20.6	18.89	16.41	13.62	11.04	8.99	7.37	5.81	3.84	1.23	-1.91	-5.24	-8.32	-10.9	-12.94	-14.55	-15.99	-17.51	-19.39	-21.79	-24.75	-28.07	-31.28	-33.82	-35.08	-34.72	-32.65	-29.08	-24.31	-18.72	-12.66	-6.45	-0.43	5.06	9.75	13.47	16.16	17.9	18.85	19.26	19.41	19.54	19.78	20.12	20.46	20.66	20.63	20.31	19.72	18.84	17.65	16.21	14.6	12.95	11.41	9.94	8.37	6.49	4.15	1.43	-1.44	-4.19	-6.68	-8.91	-11.01	-13.15	-15.42	-17.88	-20.58	-23.53	-26.6	-29.48	-31.67	-32.61	-31.91	-29.51	-25.67	-20.88	-15.59	-10.12	-4.7	0.44	5	8.71	11.39	13.06	14.01	14.59	15.14	15.86	16.76	17.72	18.59	19.19	19.41	19.24	18.73	18.05	17.36	16.74	16.08	15.19	13.89	12.13	10.06	7.88	5.75	3.64	1.45	-0.97
20.63	20.31	19.72	18.84	17.65	16.21	14.6	12.95	11.41	9.94	8.37	6.49	4.15	1.43	-1.44	-4.19	-6.68	-8.91	-11.01	-13.15	-15.42	-17.88	-20.58	-23.53	-26.6	-29.48	-31.67	-32.61	-31.91	-29.51	-25.67	-20.88	-15.59	-10.12	-4.7	0.44	5	8.71	11.39	13.06	14.01	14.59	15.14	15.86	16.76	17.72	18.59	19.19	19.41	19.24	18.73	18.05	17.36	16.74	16.08	15.19	13.89	12.13	10.06	7.88	5.75	3.64	1.45	-0.97	-3.6	-6.33	-9.06	-11.74	-14.51	-17.51	-20.79	-24.23	-27.52	-30.31	-32.25	-33.08	-32.58	-30.66	-27.34	-22.81	-17.45	-11.81	-6.39	-1.56	2.52	5.98	9.01	11.81	14.4	16.62	18.23	19.08	19.23	18.93	18.53	18.31	18.35	18.53	18.62	18.43	17.88	17.03	16	14.9	13.67	12.17	10.25	7.85	5.16	2.45	0.04	-1.97	-3.71	-5.5	-7.67	-10.36	-13.5	-16.84	-20.18	-23.36	-26.29	-28.76	-30.49	-31.11	-30.35	-28.1	-24.48	-19.77
-3.6	-6.33	-9.06	-11.74	-14.51	-17.51	-20.79	-24.23	-27.52	-30.31	-32.25	-33.08	-32.58	-30.66	-27.34	-22.81	-17.45	-11.81	-6.39	-1.56	2.52	5.98	9.01	11.81	14.4	16.62	18.23	19.08	19.23	18.93	18.53	18.31	18.35	18.53	18.62	18.43	17.88	17.03	16	14.9	13.67	12.17	10.25	7.85	5.16	2.45	0.04	-1.97	-3.71	-5.5	-7.67	-10.36	-13.5	-16.84	-20.18	-23.36	-26.29	-28.76	-30.49	-31.11	-30.35	-28.1	-24.48	-19.77	-14.31	-8.47	-2.61	2.93	7.85	11.94	15.09	17.32	18.62	19.07	18.83	18.24	17.78	17.8	18.43	19.41	20.17	20.17	19.19	17.46	15.43	13.62	12.18	10.95	9.61	7.92	5.91	3.83	1.97	0.42	-0.99	-2.57	-4.65	-7.39	-10.74	-14.53	-18.57	-22.68	-26.71	-30.45	-33.65	-35.94	-37	-36.56	-34.5	-30.86	-25.89	-20.03	-13.83	-7.86	-2.56	1.84	5.35	8.17	10.58	12.84	15.06	17.15	18.92	20.16	20.69	20.54	19.89	19.07
-14.31	-8.47	-2.61	2.93	7.85	11.94	15.09	17.32	18.62	19.07	18.83	18.24	17.78	17.8	18.43	19.41	20.17	20.17	19.19	17.46	15.43	13.62	12.18	10.95	9.61	7.92	5.91	3.83	1.97	0.42	-0.99	-2.57	-4.65	-7.39	-10.74	-14.53	-18.57	-22.68	-26.71	-30.45	-33.65	-35.94	-37	-36.56	-34.5	-30.86	-25.89	-20.03	-13.83	-7.86	-2.56	1.84	5.35	8.17	10.58	12.84	15.06	17.15	18.92	20.16	20.69	20.54	19.89	19.07	18.38	18.02	18.01	18.2	18.42	18.49	18.31	17.78	16.75	15.03	12.52	9.26	5.49	1.64	-1.88	-4.83	-7.21	-9.27	-11.4	-13.95	-17.14	-21	-25.3	-29.59	-33.31	-35.85	-36.77	-35.89	-33.38	-29.56	-24.85	-19.57	-13.93	-8.09	-2.25	3.27	8.12	11.97	14.64	16.22	17.03	17.46	17.93	18.72	19.82	21.02	21.96	22.29	21.81	20.58	18.86	17	15.33	14.04	13.11	12.37	11.56	10.41	8.8	6.7	4.18	1.42	-1.45	-4.3
18.38	18.02	18.01	18.2	18.42	18.49	18.31	17.78	16.75	15.03	12.52	9.26	5.49	1.64	-1.88	-4.83	-7.21	-9.27	-11.4	-13.95	-17.14	-21	-25.3	-29.59	-33.31	-35.85	-36.77	-35.89	-33.38	-29.56	-24.85	-19.57	-13.93	-8.09	-2.25	3.27	8.12	11.97	14.64	16.22	17.03	17.46	17.93	18.72	19.82	21.02	21.96	22.29	21.81	20.58	18.86	17	15.33	14.04	13.11	12.37	11.56	10.41	8.8	6.7	4.18	1.42	-1.45	-4.3	-7.05	-9.66	-12.23	-14.91	-17.96	-21.6	-25.9	-30.52	-34.78	-37.8	-38.75	-37.27	-33.49	-28.12	-22.03	-16	-10.44	-5.34	-0.49	4.25	8.76	12.67	15.51	17.11	17.66	17.72	17.9	18.52	19.53	20.57	21.25	21.45	21.36	21.32	21.56	22.03	22.42	22.29	21.31	19.42	16.83	13.91	11.02	8.43	6.16	4.06	1.86	-0.67	-3.6	-6.89	-10.34	-13.87	-17.44	-21.1	-24.83	-28.37	-31.26	-32.95	-32.99	-31.23	-27.87	-23.36	-18.19	-12.83
-7.05	-9.66	-12.23	-14.91	-17.96	-21.6	-25.9	-30.52	-34.78	-37.8	-38.75	-37.27	-33.49	-28.12	-22.03	-16	-10.44	-5.34	-0.49	4.25	8.76	12.67	15.51	17.11	17.66	17.72	17.9	18.52	19.53	20.57	21.25	21.45	21.36	21.32	21.56	22.03	22.42	22.29	21.31	19.42	16.83	13.91	11.02	8.43	6.16	4.06	1.86	-0.67	-3.6	-6.89	-10.34	-13.87	-17.44	-21.1	-24.83	-28.37	-31.26	-32.95	-32.99	-31.23	-27.87	-23.36	-18.19	-12.83	-7.51	-2.37	2.49	6.96	10.83	13.96	16.26	17.82	18.81	19.54	20.22	21.02	21.92	22.75	23.31	23.42	23.01	22.17	21.1	20	18.97	17.96	16.75	15.11	12.87	10.01	6.67	3.07	-0.58	-4.15	-7.51	-10.6	-13.4	-15.97	-18.51	-21.28	-24.49	-28.12	-31.82	-34.93	-36.75	-36.83	-35.09	-31.87	-27.67	-22.95	-17.99	-12.79	-7.31	-1.57	4.16	9.41	13.66	16.53	18.02	18.43	18.31	18.25	18.58	19.32	20.27	21.11	21.66	21.9
-7.51	-2.37	2.49	6.96	10.83	13.96	16.26	17.82	18.81	19.54	20.22	21.02	21.92	22.75	23.31	23.42	23.01	22.17	21.1	20	18.97	17.96	16.75	15.11	12.87	10.01	6.67	3.07	-0.58	-4.15	-7.51	-10.6	-13.4	-15.97	-18.51	-21.28	-24.49	-28.12	-31.82	-34.93	-36.75	-36.83	-35.09	-31.87	-27.67	-22.95	-17.99	-12.79	-7.31	-1.57	4.16	9.41	13.66	16.53	18.02	18.43	18.31	18.25	18.58	19.32	20.27	21.11	21.66	21.9	21.89	21.7	21.28	20.46	19.06	16.96	14.2	10.97	7.57	4.3	1.34	-1.24	-3.6	-5.92	-8.43	-11.3	-14.58	-18.31	-22.46	-26.93	-31.42	-35.36	-38.04	-38.81	-37.38	-33.93	-29.07	-23.55	-17.9	-12.34	-6.87	-1.42	3.93	8.89	13.14	16.48	18.97	20.91	22.55	24.04	25.27	25.98	25.98	25.27	24.1	22.89	22	21.58	21.46	21.24	20.52	19.13	17.11	14.67	12.02	9.25	6.39	3.48	0.68	-1.79	-3.76	-5.31	-6.73	-8.5
21.89	21.7	21.28	20.46	19.06	16.96	14.2	10.97	7.57	4.3	1.34	-1.24	-3.6	-5.92	-8.43	-11.3	-14.58	-18.31	-22.46	-26.93	-31.42	-35.36	-38.04	-38.81	-37.38	-33.93	-29.07	-23.55	-17.9	-12.34	-6.87	-1.42	3.93	8.89	13.14	16.48	18.97	20.91	22.55	24.04	25.27	25.98	25.98	25.27	24.1	22.89	22	21.58	21.46	21.24	20.52	19.13	17.11	14.67	12.02	9.25	6.39	3.48	0.68	-1.79	-3.76	-5.31	-6.73	-8.5	-11.03	-14.52	-18.89	-23.9	-29.15	-34.16	-38.41	-41.31	-42.33	-41.11	-37.69	-32.52	-26.3	-19.84	-13.71	-8.2	-3.29	1.17	5.35	9.31	13	16.3	19.06	21.21	22.69	23.53	23.81	23.68	23.34	22.96	22.68	22.53	22.45	22.3	22	21.5	20.77	19.78	18.47	16.78	14.69	12.31	9.76	7.2	4.7	2.19	-0.42	-3.23	-6.25	-9.49	-12.91	-16.56	-20.5	-24.78	-29.27	-33.57	-37.06	-39.08	-39.19	-37.31	-33.74	-29.03	-23.74	-18.24
-11.03	-14.52	-18.89	-23.9	-29.15	-34.16	-38.41	-41.31	-42.33	-41.11	-37.69	-32.52	-26.3	-19.84	-13.71	-8.2	-3.29	1.17	5.35	9.31	13	16.3	19.06	21.21	22.69	23.53	23.81	23.68	23.34	22.96	22.68	22.53	22.45	22.3	22	21.5	20.77	19.78	18.47	16.78	14.69	12.31	9.76	7.2	4.7	2.19	-0.42	-3.23	-6.25	-9.49	-12.91	-16.56	-20.5	-24.78	-29.27	-33.57	-37.06	-39.08	-39.19	-37.31	-33.74	-29.03	-23.74	-18.24	-12.7	-7.15	-1.62	3.73	8.59	12.63	15.61	17.48	18.42	18.75	18.82	18.92	19.16	19.52	19.88	20.13	20.2	20.14	20	19.8	19.48	18.88	17.86	16.33	14.38	12.22	10.1	8.19	6.5	4.9	3.16	1.15	-1.2	-3.83	-6.66	-9.71	-13.07	-16.84	-20.99	-25.24	-29.08	-31.95	-33.41	-33.3	-31.67	-28.72	-24.68	-19.73	-14.15	-8.28	-2.52	2.76	7.35	11.17	14.21	16.47	17.93	18.65	18.83	18.83	18.95	19.39	20.02	20.54
-12.7	-7.15	-1.62	3.73	8.59	12.63	15.61	17.48	18.42	18.75	18.82	18.92	19.16	19.52	19.88	20.13	20.2	20.14	20	19.8	19.48	18.88	17.86	16.33	14.38	12.22	10.1	8.19	6.5	4.9	3.16	1.15	-1.2	-3.83	-6.66	-9.71	-13.07	-16.84	-20.99	-25.24	-29.08	-31.95	-33.41	-33.3	-31.67	-28.72	-24.68	-19.73	-14.15	-8.28	-2.52	2.76	7.35	11.17	14.21	16.47	17.93	18.65	18.83	18.83	18.95	19.39	20.02	20.54	20.67	20.29	19.55	18.69	17.87	17.01	15.86	14.12	11.76	8.97	6.08	3.42	1.12	-0.92	-2.84	-4.83	-6.95	-9.27	-11.93	-15.14	-19.06	-23.57	-28.17	-32.1	-34.51	-34.83	-32.98	-29.32	-24.53	-19.3	-14.1	-9.11	-4.31	0.39	4.94	9.14	12.69	15.34	16.99	17.8	18.07	18.23	18.57	19.17	19.9	20.48	20.64	20.28	19.46	18.43	17.45	16.64	15.94	15.12	13.81	11.76	8.93	5.58	2.12	-1.03	-3.63	-5.77	-7.75	-9.96
20.67	20.29	19.55	18.69	17.87	17.01	15.86	14.12	11.76	8.97	6.08	3.42	1.12	-0.92	-2.84	-4.83	-6.95	-9.27	-11.93	-15.14	-19.06	-23.57	-28.17	-32.1	-34.51	-34.83	-32.98	-29.32	-24.53	-19.3	-14.1	-9.11	-4.31	0.39	4.94	9.14	12.69	15.34	16.99	17.8	18.07	18.23	18.57	19.17	19.9	20.48	20.64	20.28	19.46	18.43	17.45	16.64	15.94	15.12	13.81	11.76	8.93	5.58	2.12	-1.03	-3.63	-5.77	-7.75	-9.96	-12.68	-16.03	-19.94	-24.16	-28.38	-32.24	-35.31	-37.18	-37.51	-36.11	-33.04	-28.61	-23.31	-17.66	-12.11	-6.9	-2.09	2.39	6.6	10.5	13.91	16.69	18.75	20.16	21.18	22.07	23.02	24.02	24.9	25.4	25.32	24.65	23.47	22	20.43	18.86	17.28	15.57	13.58	11.22	8.49	5.48	2.31	-0.91	-4.08	-7.1	-9.86	-12.31	-14.52	-16.73	-19.33	-22.64	-26.76	-31.31	-35.58	-38.67	-39.87	-38.87	-35.83	-31.23	-25.63	-19.5	-13.18	-6.93
-12.68	-16.03	-19.94	-24.16	-28.38	-32.24	-35.31	-37.18	-37.51	-36.11	-33.04	-28.61	-23.31	-17.66	-12.11	-6.9	-2.09	2.39	6.6	10.5	13.91	16.69	18.75	20.16	21.18	22.07	23.02	24.02	24.9	25.4	25.32	24.65	23.47	22	20.43	18.86	17.28	15.57	13.58	11.22	8.49	5.48	2.31	-0.91	-4.08	-7.1	-9.86	-12.31	-14.52	-16.73	-19.33	-22.64	-26.76	-31.31	-35.58	-38.67	-39.87	-38.87	-35.83	-31.23	-25.63	-19.5	-13.18	-6.93	-1.03	4.25	8.66	12.11	14.66	16.51	17.92	19.15	20.36	21.66	23.02	24.31	25.31	25.8	25.66	24.94	23.82	22.55	21.31	20.15	18.95	17.53	15.71	13.44	10.79	7.94	5.13	2.51	0.15	-2.04	-4.27	-6.78	-9.68	-12.98	-16.52	-20.15	-23.76	-27.33	-30.81	-33.98	-36.39	-37.44	-36.65	-33.87	-29.33	-23.61	-17.36	-11.1	-5.15	0.3	5.09	9.06	12.08	14.17	15.54	16.52	17.41	18.34	19.23	19.92	20.21	20.06	19.51	18.68
-1.03	4.25	8.66	12.11	14.66	16.51	17.92	19.15	20.36	21.66	23.02	24.31	25.31	25.8	25.66	24.94	23.82	22.55	21.31	20.15	18.95	17.53	15.71	13.44	10.79	7.94	5.13	2.51	0.15	-2.04	-4.27	-6.78	-9.68	-12.98	-16.52	-20.15	-23.76	-27.33	-30.81	-33.98	-36.39	-37.44	-36.65	-33.87	-29.33	-23.61	-17.36	-11.1	-5.15	0.3	5.09	9.06	12.08	14.17	15.54	16.52	17.41	18.34	19.23	19.92	20.21	20.06	19.51	18.68	17.76	16.9	16.2	15.64	15.1	14.35	13.13	11.29	8.83	5.89	2.7	-0.48	-3.43	-6.03	-8.24	-10.19	-12.13	-14.43	-17.48	-21.4	-26.03	-30.72	-34.6	-36.73	-36.49	-33.77	-28.99	-22.91	-16.34	-9.9	-3.96	1.35	6.01	9.99	13.22	15.7	17.5	18.81	19.8	20.62	21.28	21.73	21.9	21.71	21.19	20.35	19.26	18	16.66	15.33	14.03	12.65	11.02	8.97	6.39	3.37	0.18	-2.89	-5.62	-8.06	-10.47	-13.25	-16.72	-20.99
17.76	16.9	16.2	15.64	15.1	14.35	13.13	11.29	8.83	5.89	2.7	-0.48	-3.43	-6.03	-8.24	-10.19	-12.13	-14.43	-17.48	-21.4	-26.03	-30.72	-34.6	-36.73	-36.49	-33.77	-28.99	-22.91	-16.34	-9.9	-3.96	1.35	6.01	9.99	13.22	15.7	17.5	18.81	19.8	20.62	21.28	21.73	21.9	21.71	21.19	20.35	19.26	18	16.66	15.33	14.03	12.65	11.02	8.97	6.39	3.37	0.18	-2.89	-5.62	-8.06	-10.47	-13.25	-16.72	-20.99	-25.84	-30.79	-35.21	-38.5	-40.22	-40.16	-38.32	-34.88	-30.21	-24.77	-19.09	-13.55	-8.3	-3.21	1.9	7.11	12.2	16.59	19.74	21.33	21.55	21.07	20.61	20.66	21.24	22	22.48	22.44	21.94	21.22	20.5	19.72	18.6	16.73	13.88	10.14	5.98	2.04	-1.19	-3.56	-5.3	-6.92	-8.94	-11.66	-15.16	-19.3	-23.91	-28.79	-33.66	-38.1	-41.54	-43.39	-43.28	-41.14	-37.26	-32.13	-26.25	-19.97	-13.47	-6.8	-0.08	6.48	12.5	17.58
-25.84	-30.79	-35.21	-38.5	-40.22	-40.16	-38.32	-34.88	-30.21	-24.77	-19.09	-13.55	-8.3	-3.21	1.9	7.11	12.2	16.59	19.74	21.33	21.55	21.07	20.61	20.66	21.24	22	22.48	22.44	21.94	21.22	20.5	19.72	18.6	16.73	13.88	10.14	5.98	2.04	-1.19	-3.56	-5.3	-6.92	-8.94	-11.66	-15.16	-19.3	-23.91	-28.79	-33.66	-38.1	-41.54	-43.39	-43.28	-41.14	-37.26	-32.13	-26.25	-19.97	-13.47	-6.8	-0.08	6.48	12.5	17.58	21.47	24.14	25.76	26.6	26.91	26.85	26.53	26.06	25.62	25.41	25.51	25.79	25.89	25.36	23.92	21.62	18.75	15.73	12.88	10.28	7.83	5.43	2.98	0.53	-1.86	-4.23	-6.71	-9.51	-12.82	-16.67	-20.97	-25.51	-30.04	-34.3	-37.91	-40.46	-41.46	-40.56	-37.62	-32.8	-26.58	-19.53	-12.24	-5.16	1.33	7.04	11.77	15.4	17.94	19.58	20.68	21.66	22.84	24.3	25.84	27.13	27.86	27.9	27.34	26.45	25.44	24.43	23.36	22.11
21.47	24.14	25.76	26.6	26.91	26.85	26.53	26.06	25.62	25.41	25.51	25.79	25.89	25.36	23.92	21.62	18.75	15.73	12.88	10.28	7.83	5.43	2.98	0.53	-1.86	-4.23	-6.71	-9.51	-12.82	-16.67	-20.97	-25.51	-30.04	-34.3	-37.91	-40.46	-41.46	-40.56	-37.62	-32.8	-26.58	-19.53	-12.24	-5.16	1.33	7.04	11.77	15.4	17.94	19.58	20.68	21.66	22.84	24.3	25.84	27.13	27.86	27.9	27.34	26.45	25.44	24.43	23.36	22.11	20.67	19.11	17.48	15.75	13.73	11.17	7.97	4.35	0.76	-2.33	-4.68	-6.46	-8.14	-10.29	-13.3	-17.27	-22.01	-27.09	-31.95	-35.98	-38.58	-39.25	-37.77	-34.27	-29.21	-23.21	-16.91	-10.77	-5.03	0.21	4.89	8.98	12.45	15.28	17.49	19.14	20.32	21.13	21.71	22.26	22.87	23.55	24.15	24.43	24.15	23.26	21.87	20.23	18.52	16.79	14.9	12.71	10.13	7.26	4.3	1.48	-1.08	-3.37	-5.5	-7.53	-9.56	-11.67	-14.08	-17.05
20.67	19.11	17.48	15.75	13.73	11.17	7.97	4.35	0.76	-2.33	-4.68	-6.46	-8.14	-10.29	-13.3	-17.27	-22.01	-27.09	-31.95	-35.98	-38.58	-39.25	-37.77	-34.27	-29.21	-23.21	-16.91	-10.77	-5.03	0.21	4.89	8.98	12.45	15.28	17.49	19.14	20.32	21.13	21.71	22.26	22.87	23.55	24.15	24.43	24.15	23.26	21.87	20.23	18.52	16.79	14.9	12.71	10.13	7.26	4.3	1.48	-1.08	-3.37	-5.5	-7.53	-9.56	-11.67	-14.08	-17.05	-20.79	-25.23	-29.96	-34.25	-37.3	-38.5	-37.63	-34.81	-30.45	-24.99	-18.85	-12.41	-5.98	0.01	5.18	9.27	12.25	14.42	16.22	18.1	20.24	22.52	24.61	26.14	26.86	26.75	25.99	24.79	23.32	21.63	19.77	17.78	15.73	13.65	11.48	9.12	6.46	3.51	0.43	-2.54	-5.25	-7.68	-9.96	-12.33	-14.98	-18.09	-21.77	-26	-30.68	-35.39	-39.49	-42.15	-42.65	-40.58	-36.07	-29.71	-22.39	-15.05	-8.35	-2.61	2.15	6.15	9.62	12.73
-20.79	-25.23	-29.96	-34.25	-37.3	-38.5	-37.63	-34.81	-30.45	-24.99	-18.85	-12.41	-5.98	0.01	5.18	9.27	12.25	14.42	16.22	18.1	20.24	22.52	24.61	26.14	26.86	26.75	25.99	24.79	23.32	21.63	19.77	17.78	15.73	13.65	11.48	9.12	6.46	3.51	0.43	-2.54	-5.25	-7.68	-9.96	-12.33	-14.98	-18.09	-21.77	-26	-30.68	-35.39	-39.49	-42.15	-42.65	-40.58	-36.07	-29.71	-22.39	-15.05	-8.35	-2.61	2.15	6.15	9.62	12.73	15.59	18.21	20.53	22.49	24	25	25.44	25.33	24.79	23.97	23.13	22.42	21.91	21.51	21	20.13	18.74	16.82	14.47	11.85	9.06	6.15	3.17	0.17	-2.75	-5.49	-8.1	-10.77	-13.78	-17.39	-21.65	-26.4	-31.21	-35.54	-38.86	-40.72	-40.86	-39.15	-35.7	-30.8	-24.88	-18.47	-12	-5.75	0.16	5.71	10.87	15.52	19.46	22.46	24.37	25.27	25.37	25.08	24.78	24.65	24.64	24.59	24.28	23.64	22.75	21.73	20.72	19.64
15.59	18.21	20.53	22.49	24	25	25.44	25.33	24.79	23.97	23.13	22.42	21.91	21.51	21	20.13	18.74	16.82	14.47	11.85	9.06	6.15	3.17	0.17	-2.75	-5.49	-8.1	-10.77	-13.78	-17.39	-21.65	-26.4	-31.21	-35.54	-38.86	-40.72	-40.86	-39.15	-35.7	-30.8	-24.88	-18.47	-12	-5.75	0.16	5.71	10.87	15.52	19.46	22.46	24.37	25.27	25.37	25.08	24.78	24.65	24.64	24.59	24.28	23.64	22.75	21.73	20.72	19.64	18.28	16.44	13.98	11.02	7.8	4.62	1.7	-0.9	-3.2	-5.31	-7.38	-9.54	-11.91	-14.67	-17.94	-21.8	-26.13	-30.6	-34.61	-37.48	-38.64	-37.8	-35.06	-30.85	-25.73	-20.19	-14.52	-8.83	-3.15	2.4	7.57	11.93	15.12	16.99	17.64	17.49	17.04	16.74	16.75	16.99	17.23	17.26	16.99	16.49	15.82	15.02	13.98	12.52	10.47	7.85	4.82	1.67	-1.28	-3.81	-5.9	-7.69	-9.45	-11.5	-14.08	-17.26	-20.96	-24.97	-28.99	-32.69
18.28	16.44	13.98	11.02	7.8	4.62	1.7	-0.9	-3.2	-5.31	-7.38	-9.54	-11.91	-14.67	-17.94	-21.8	-26.13	-30.6	-34.61	-37.48	-38.64	-37.8	-35.06	-30.85	-25.73	-20.19	-14.52	-8.83	-3.15	2.4	7.57	11.93	15.12	16.99	17.64	17.49	17.04	16.74	16.75	16.99	17.23	17.26	16.99	16.49	15.82	15.02	13.98	12.52	10.47	7.85	4.82	1.67	-1.28	-3.81	-5.9	-7.69	-9.45	-11.5	-14.08	-17.26	-20.96	-24.97	-28.99	-32.69	-35.71	-37.65	-38.09	-36.74	-33.57	-28.81	-22.97	-16.6	-10.15	-3.87	2.12	7.77	12.86	17.14	20.36	22.43	23.55	24.1	24.48	24.9	25.34	25.61	25.54	25.07	24.25	23.22	22.04	20.7	19.11	17.21	14.93	12.32	9.39	6.19	2.8	-0.67	-4.01	-7.05	-9.71	-12.16	-14.76	-17.97	-22.08	-26.99	-32.19	-36.8	-39.89	-40.73	-39.06	-35.14	-29.62	-23.27	-16.76	-10.5	-4.65	0.74	5.65	9.96	13.54	16.27	18.17	19.41	20.31	21.25
-35.71	-37.65	-38.09	-36.74	-33.57	-28.81	-22.97	-16.6	-10.15	-3.87	2.12	7.77	12.86	17.14	20.36	22.43	23.55	24.1	24.48	24.9	25.34	25.61	25.54	25.07	24.25	23.22	22.04	20.7	19.11	17.21	14.93	12.32	9.39	6.19	2.8	-0.67	-4.01	-7.05	-9.71	-12.16	-14.76	-17.97	-22.08	-26.99	-32.19	-36.8	-39.89	-40.73	-39.06	-35.14	-29.62	-23.27	-16.76	-10.5	-4.65	0.74	5.65	9.96	13.54	16.27	18.17	19.41	20.31	21.25	22.45	23.95	25.55	26.88	27.59	27.45	26.51	24.93	23.01	20.93	18.83	16.74	14.7	12.71	10.74	8.65	6.27	3.49	0.35	-2.92	-6.1	-9.08	-12.07	-15.47	-19.67	-24.8	-30.45	-35.83	-39.94	-41.96	-41.54	-38.85	-34.41	-28.85	-22.69	-16.23	-9.7	-3.29	2.79	8.3	13.07	17.02	20.19	22.6	24.35	25.48	26.13	26.41	26.45	26.31	26	25.53	24.94	24.36	23.81	23.24	22.48	21.29	19.57	17.4	15.02	12.66	10.43	8.24
22.45	23.95	25.55	26.88	27.59	27.45	26.51	24.93	23.01	20.93	18.83	16.74	14.7	12.71	10.74	8.65	6.27	3.49	0.35	-2.92	-6.1	-9.08	-12.07	-15.47	-19.67	-24.8	-30.45	-35.83	-39.94	-41.96	-41.54	-38.85	-34.41	-28.85	-22.69	-16.23	-9.7	-3.29	2.79	8.3	13.07	17.02	20.19	22.6	24.35	25.48	26.13	26.41	26.45	26.31	26	25.53	24.94	24.36	23.81	23.24	22.48	21.29	19.57	17.4	15.02	12.66	10.43	8.24	5.92	3.35	0.51	-2.43	-5.32	-8.08	-10.8	-13.71	-17.12	-21.23	-26.05	-31.26	-36.25	-40.28	-42.69	-43.08	-41.4	-37.93	-33.09	-27.36	-21.13	-14.64	-8.08	-1.6	4.64	10.47	15.67	19.99	23.22	25.28	26.27	26.5	26.37	26.29	26.44	26.85	27.36	27.73	27.74	27.27	26.33	25.06	23.64	22.2	20.82	19.39	17.72	15.58	12.84	9.53	5.88	2.23	-1.06	-3.79	-6	-7.9	-9.76	-11.8	-14.09	-16.7	-19.76	-23.42	-27.82	-32.84
5.92	3.35	0.51	-2.43	-5.32	-8.08	-10.8	-13.71	-17.12	-21.23	-26.05	-31.26	-36.25	-40.28	-42.69	-43.08	-41.4	-37.93	-33.09	-27.36	-21.13	-14.64	-8.08	-1.6	4.64	10.47	15.67	19.99	23.22	25.28	26.27	26.5	26.37	26.29	26.44	26.85	27.36	27.73	27.74	27.27	26.33	25.06	23.64	22.2	20.82	19.39	17.72	15.58	12.84	9.53	5.88	2.23	-1.06	-3.79	-6	-7.9	-9.76	-11.8	-14.09	-16.7	-19.76	-23.42	-27.82	-32.84	-37.96	-42.29	-44.88	-45.07	-42.73	-38.33	-32.65	-26.43	-20.07	-13.65	-7.11	-0.51	5.83	11.37	15.62	18.42	19.94	20.67	21.1	21.49	21.83	21.95	21.67	21.09	20.44	20.03	19.97	20.12	20.15	19.68	18.54	16.75	14.54	12.14	9.68	7.18	4.59	1.9	-0.87	-3.64	-6.34	-8.98	-11.64	-14.38	-17.24	-20.24	-23.37	-26.63	-30	-33.29	-36.09	-37.83	-37.9	-35.86	-31.74	-25.91	-19.02	-11.77	-4.76	1.6	7.11	11.65	15.17	17.68
-37.96	-42.29	-44.88	-45.07	-42.73	-38.33	-32.65	-26.43	-20.07	-13.65	-7.11	-0.51	5.83	11.37	15.62	18.42	19.94	20.67	21.1	21.49	21.83	21.95	21.67	21.09	20.44	20.03	19.97	20.12	20.15	19.68	18.54	16.75	14.54	12.14	9.68	7.18	4.59	1.9	-0.87	-3.64	-6.34	-8.98	-11.64	-14.38	-17.24	-20.24	-23.37	-26.63	-30	-33.29	-36.09	-37.83	-37.9	-35.86	-31.74	-25.91	-19.02	-11.77	-4.76	1.6	7.11	11.65	15.17	17.68	19.25	20.11	20.56	20.91	21.45	22.23	23.16	23.96	24.37	24.3	23.88	23.35	22.9	22.48	21.84	20.69	18.92	16.69	14.32	12.05	9.88	7.61	4.98	1.92	-1.38	-4.6	-7.49	-10.06	-12.62	-15.51	-18.97	-22.91	-26.96	-30.62	-33.44	-35.08	-35.29	-33.98	-31.06	-26.56	-20.68	-13.91	-6.94	-0.54	4.68	8.51	11.14	13.01	14.54	15.9	17.02	17.72	17.94	17.82	17.66	17.69	17.99	18.38	18.59	18.4	17.73	16.66	15.28	13.62
19.25	20.11	20.56	20.91	21.45	22.23	23.16	23.96	24.37	24.3	23.88	23.35	22.9	22.48	21.84	20.69	18.92	16.69	14.32	12.05	9.88	7.61	4.98	1.92	-1.38	-4.6	-7.49	-10.06	-12.62	-15.51	-18.97	-22.91	-26.96	-30.62	-33.44	-35.08	-35.29	-33.98	-31.06	-26.56	-20.68	-13.91	-6.94	-0.54	4.68	8.51	11.14	13.01	14.54	15.9	17.02	17.72	17.94	17.82	17.66	17.69	17.99	18.38	18.59	18.4	17.73	16.66	15.28	13.62	11.65	9.32	6.7	3.98	1.38	-0.9	-2.83	-4.59	-6.47	-8.84	-11.99	-16.07	-20.97	-26.33	-31.55	-35.84	-38.49	-38.97	-37.15	-33.4	-28.36	-22.74	-17.1	-11.63	-6.28	-1	4.18	8.96	12.96	15.85	17.51	18.07	17.82	17.07	16.07	14.98	13.88	12.84	11.92	11.11	10.4	9.64	8.7	7.45	5.88	4.05	2.11	0.15	-1.84	-4.02	-6.63	-9.88	-13.82	-18.31	-23.15	-28.16	-33.25	-38.41	-43.61	-48.66	-53.22	-56.89	-59.34	-60.44
11.65	9.32	6.7	3.98	1.38	-0.9	-2.83	-4.59	-6.47	-8.84	-11.99	-16.07	-20.97	-26.33	-31.55	-35.84	-38.49	-38.97	-37.15	-33.4	-28.36	-22.74	-17.1	-11.63	-6.28	-1	4.18	8.96	12.96	15.85	17.51	18.07	17.82	17.07	16.07	14.98	13.88	12.84	11.92	11.11	10.4	9.64	8.7	7.45	5.88	4.05	2.11	0.15	-1.84	-4.02	-6.63	-9.88	-13.82	-18.31	-23.15	-28.16	-33.25	-38.41	-43.61	-48.66	-53.22	-56.89	-59.34	-60.44	-60.23	-58.95	-56.95	-54.67	-52.68	-51.6	-51.93	-53.91	-57.46	-62.14	-67.34	-72.34	-76.44	-78.88	-78.88	-75.65	-68.59	-57.51	-42.86	-25.67	-7.43	10.3	26.13	39.14	48.79	54.96	57.85	57.8	55.26	50.72	44.64	37.41	29.45	21.13	12.94	5.34	-1.16	-6.13	-9.22	-10.2	-8.99	-5.64	-0.47	6.01	13.18	20.38	27.05	32.8	37.4	40.75	42.81	43.67	43.55	42.78	41.73	40.69	39.76	38.9	37.92	36.71	35.28	33.74	32.26	30.87
-60.23	-58.95	-56.95	-54.67	-52.68	-51.6	-51.93	-53.91	-57.46	-62.14	-67.34	-72.34	-76.44	-78.88	-78.88	-75.65	-68.59	-57.51	-42.86	-25.67	-7.43	10.3	26.13	39.14	48.79	54.96	57.85	57.8	55.26	50.72	44.64	37.41	29.45	21.13	12.94	5.34	-1.16	-6.13	-9.22	-10.2	-8.99	-5.64	-0.47	6.01	13.18	20.38	27.05	32.8	37.4	40.75	42.81	43.67	43.55	42.78	41.73	40.69	39.76	38.9	37.92	36.71	35.28	33.74	32.26	30.87	29.43	27.68	25.36	22.45	19.13	15.71	12.43	9.31	6.16	2.73	-1.12	-5.31	-9.66	-13.91	-17.86	-21.38	-24.18	-25.83	-25.82	-23.76	-19.61	-13.78	-6.98	0.06	6.74	12.75	17.87	21.94	24.84	26.52	27.19	27.2	27.03	26.98	27.1	27.13	26.74	25.67	23.95	21.83	19.62	17.55	15.6	13.6	11.32	8.67	5.71	2.62	-0.39	-3.22	-5.91	-8.67	-11.67	-15.05	-18.81	-22.71	-26.39	-29.35	-31.13	-31.35	-29.85	-26.72	-22.27	-16.88
29.43	27.68	25.36	22.45	19.13	15.71	12.43	9.31	6.16	2.73	-1.12	-5.31	-9.66	-13.91	-17.86	-21.38	-24.18	-25.83	-25.82	-23.76	-19.61	-13.78	-6.98	0.06	6.74	12.75	17.87	21.94	24.84	26.52	27.19	27.2	27.03	26.98	27.1	27.13	26.74	25.67	23.95	21.83	19.62	17.55	15.6	13.6	11.32	8.67	5.71	2.62	-0.39	-3.22	-5.91	-8.67	-11.67	-15.05	-18.81	-22.71	-26.39	-29.35	-31.13	-31.35	-29.85	-26.72	-22.27	-16.88	-10.92	-4.7	1.53	7.46	12.73	16.92	19.71	21.06	21.21	20.67	19.96	19.41	19.12	18.95	18.72	18.37	17.92	17.46	16.97	16.32	15.28	13.63	11.32	8.47	5.3	2.07	-1.04	-3.92	-6.6	-9.23	-12.03	-15.28	-19.08	-23.28	-27.38	-30.62	-32.25	-31.75	-29.06	-24.59	-18.96	-12.76	-6.41	-0.1	5.96	11.45	15.96	19.13	20.93	21.7	22.02	22.4	23.07	23.86	24.44	24.52	23.97	22.94	21.62	20.18	18.74	17.35	16.04	14.78
-10.92	-4.7	1.53	7.46	12.73	16.92	19.71	21.06	21.21	20.67	19.96	19.41	19.12	18.95	18.72	18.37	17.92	17.46	16.97	16.32	15.28	13.63	11.32	8.47	5.3	2.07	-1.04	-3.92	-6.6	-9.23	-12.03	-15.28	-19.08	-23.28	-27.38	-30.62	-32.25	-31.75	-29.06	-24.59	-18.96	-12.76	-6.41	-0.1	5.96	11.45	15.96	19.13	20.93	21.7	22.02	22.4	23.07	23.86	24.44	24.52	23.97	22.94	21.62	20.18	18.74	17.35	16.04	14.78	13.39	11.59	9.05	5.62	1.44	-3.09	-7.5	-11.46	-14.98	-18.37	-22.05	-26.27	-30.95	-35.58	-39.3	-41.23	-40.71	-37.56	-32.12	-25.12	-17.37	-9.51	-1.83	5.61	12.76	19.39	25.05	29.24	31.72	32.66	32.58	32.14	31.79	31.64	31.52	31.15	30.37	29.24	27.92	26.55	25.19	23.78	22.22	20.49	18.61	16.62	14.54	12.25	9.65	6.73	3.58	0.5	-2.23	-4.44	-6.22	-7.97	-10.24	-13.55	-18.13	-23.74	-29.65	-34.85	-38.33	-39.4
13.39	11.59	9.05	5.62	1.44	-3.09	-7.5	-11.46	-14.98	-18.37	-22.05	-26.27	-30.95	-35.58	-39.3	-41.23	-40.71	-37.56	-32.12	-25.12	-17.37	-9.51	-1.83	5.61	12.76	19.39	25.05	29.24	31.72	32.66	32.58	32.14	31.79	31.64	31.52	31.15	30.37	29.24	27.92	26.55	25.19	23.78	22.22	20.49	18.61	16.62	14.54	12.25	9.65	6.73	3.58	0.5	-2.23	-4.44	-6.22	-7.97	-10.24	-13.55	-18.13	-23.74	-29.65	-34.85	-38.33	-39.4	-37.82	-33.84	-28.01	-21	-13.39	-5.62	1.95	8.99	15.16	20.19	23.96	26.55	28.16	29.07	29.51	29.64	29.6	29.53	29.6	29.88	30.35	30.82	31.01	30.69	29.73	28.19	26.24	24.03	21.69	19.26	16.68	13.92	11.01	8.07	5.31	2.88	0.84	-0.97	-2.8	-4.89	-7.34	-10.01	-12.7	-15.28	-17.85	-20.69	-23.97	-27.56	-30.83	-32.89	-32.95	-30.72	-26.62	-21.46	-16.15	-11.19	-6.62	-2.17	2.36	6.88	10.99	14.24	16.41	17.64
-37.82	-33.84	-28.01	-21	-13.39	-5.62	1.95	8.99	15.16	20.19	23.96	26.55	28.16	29.07	29.51	29.64	29.6	29.53	29.6	29.88	30.35	30.82	31.01	30.69	29.73	28.19	26.24	24.03	21.69	19.26	16.68	13.92	11.01	8.07	5.31	2.88	0.84	-0.97	-2.8	-4.89	-7.34	-10.01	-12.7	-15.28	-17.85	-20.69	-23.97	-27.56	-30.83	-32.89	-32.95	-30.72	-26.62	-21.46	-16.15	-11.19	-6.62	-2.17	2.36	6.88	10.99	14.24	16.41	17.64	18.3	18.74	19.12	19.35	19.32	19.05	18.77	18.82	19.39	20.32	21.18	21.41	20.67	18.95	16.6	14.1	11.82	9.88	8.17	6.47	4.65	2.71	0.79	-1.02	-2.69	-4.33	-6.03	-7.83	-9.71	-11.68	-13.81	-16.33	-19.46	-23.21	-27.21	-30.81	-33.17	-33.65	-32.07	-28.71	-24.23	-19.35	-14.6	-10.18	-6.04	-2.06	1.83	5.48	8.57	10.77	11.85	11.87	11.17	10.22	9.43	9.03	8.95	8.97	8.87	8.57	8.16	7.81	7.67	7.74
18.3	18.74	19.12	19.35	19.32	19.05	18.77	18.82	19.39	20.32	21.18	21.41	20.67	18.95	16.6	14.1	11.82	9.88	8.17	6.47	4.65	2.71	0.79	-1.02	-2.69	-4.33	-6.03	-7.83	-9.71	-11.68	-13.81	-16.33	-19.46	-23.21	-27.21	-30.81	-33.17	-33.65	-32.07	-28.71	-24.23	-19.35	-14.6	-10.18	-6.04	-2.06	1.83	5.48	8.57	10.77	11.85	11.87	11.17	10.22	9.43	9.03	8.95	8.97	8.87	8.57	8.16	7.81	7.67	7.74	7.85	7.7	7.04	5.8	4.14	2.37	0.85	-0.28	-1.15	-2.11	-3.6	-5.85	-8.77	-12.01	-15.09	-17.66	-19.67	-21.36	-23.14	-25.35	-28.03	-30.86	-33.28	-34.67	-34.49	-32.55	-28.99	-24.33	-19.16	-14.12	-9.61	-5.83	-2.76	-0.35	1.42	2.53	2.96	2.77	2.18	1.46	0.82	0.37	0.06	-0.24	-0.6	-1.01	-1.35	-1.48	-1.34	-0.98	-0.55	-0.25	-0.31	-0.86	-1.97	-3.55	-5.4	-7.25	-8.86	-10.15	-11.22	-12.3	-13.58	-15.12
7.85	7.7	7.04	5.8	4.14	2.37	0.85	-0.28	-1.15	-2.11	-3.6	-5.85	-8.77	-12.01	-15.09	-17.66	-19.67	-21.36	-23.14	-25.35	-28.03	-30.86	-33.28	-34.67	-34.49	-32.55	-28.99	-24.33	-19.16	-14.12	-9.61	-5.83	-2.76	-0.35	1.42	2.53	2.96	2.77	2.18	1.46	0.82	0.37	0.06	-0.24	-0.6	-1.01	-1.35	-1.48	-1.34	-0.98	-0.55	-0.25	-0.31	-0.86	-1.97	-3.55	-5.4	-7.25	-8.86	-10.15	-11.22	-12.3	-13.58	-15.12	-16.85	-18.64	-20.39	-22.12	-23.85	-25.44	-26.49	-26.4	-24.64	-21.04	-15.96	-10.15	-4.44	0.56	4.67	8.03	10.91	13.48	15.74	17.61	19.06	20.16	21	21.6	21.88	21.76	21.22	20.42	19.62	19.04	18.71	18.44	17.91	16.84	15.21	13.2	11.12	9.19	7.42	5.68	3.75	1.53	-0.96	-3.58	-6.18	-8.65	-11	-13.26	-15.55	-18	-20.78	-23.89	-27.16	-30.1	-32.06	-32.46	-30.99	-27.84	-23.51	-18.63	-13.68	-8.85	-4.2	0.21
-16.85	-18.64	-20.39	-22.12	-23.85	-25.44	-26.49	-26.4	-24.64	-21.04	-15.96	-10.15	-4.44	0.56	4.67	8.03	10.91	13.48	15.74	17.61	19.06	20.16	21	21.6	21.88	21.76	21.22	20.42	19.62	19.04	18.71	18.44	17.91	16.84	15.21	13.2	11.12	9.19	7.42	5.68	3.75	1.53	-0.96	-3.58	-6.18	-8.65	-11	-13.26	-15.55	-18	-20.78	-23.89	-27.16	-30.1	-32.06	-32.46	-30.99	-27.84	-23.51	-18.63	-13.68	-8.85	-4.2	0.21	4.21	7.46	9.7	10.87	11.15	10.93	10.6	10.41	10.46	10.66	10.87	10.95	10.8	10.42	9.84	9.14	8.41	7.74	7.2	6.84	6.64	6.45	5.98	4.91	3.04	0.38	-2.77	-5.98	-8.85	-11.22	-13.16	-14.92	-16.77	-18.93	-21.47	-24.36	-27.43	-30.34	-32.65	-33.81	-33.38	-31.24	-27.57	-22.91	-17.91	-13.12	-8.78	-4.88	-1.2	2.39	5.86	8.95	11.34	12.84	13.53	13.75	13.88	14.18	14.64	15.02	15.09	14.76	14.19	13.65
4.21	7.46	9.7	10.87	11.15	10.93	10.6	10.41	10.46	10.66	10.87	10.95	10.8	10.42	9.84	9.14	8.41	7.74	7.2	6.84	6.64	6.45	5.98	4.91	3.04	0.38	-2.77	-5.98	-8.85	-11.22	-13.16	-14.92	-16.77	-18.93	-21.47	-24.36	-27.43	-30.34	-32.65	-33.81	-33.38	-31.24	-27.57	-22.91	-17.91	-13.12	-8.78	-4.88	-1.2	2.39	5.86	8.95	11.34	12.84	13.53	13.75	13.88	14.18	14.64	15.02	15.09	14.76	14.19	13.65	13.29	13.02	12.59	11.73	10.3	8.44	6.36	4.29	2.35	0.44	-1.56	-3.75	-6.1	-8.48	-10.73	-12.8	-14.75	-16.82	-19.25	-22.23	-25.76	-29.52	-32.95	-35.39	-36.25	-35.24	-32.45	-28.24	-23.1	-17.44	-11.57	-5.68	0.05	5.36	9.96	13.57	16.05	17.4	17.8	17.51	16.89	16.32	16.11	16.41	17.18	18.14	18.9	19.1	18.5	17.13	15.23	13.17	11.29	9.84	8.85	8.18	7.56	6.66	5.18	2.95	0.03	-3.4	-7	-10.47
13.29	13.02	12.59	11.73	10.3	8.44	6.36	4.29	2.35	0.44	-1.56	-3.75	-6.1	-8.48	-10.73	-12.8	-14.75	-16.82	-19.25	-22.23	-25.76	-29.52	-32.95	-35.39	-36.25	-35.24	-32.45	-28.24	-23.1	-17.44	-11.57	-5.68	0.05	5.36	9.96	13.57	16.05	17.4	17.8	17.51	16.89	16.32	16.11	16.41	17.18	18.14	18.9	19.1	18.5	17.13	15.23	13.17	11.29	9.84	8.85	8.18	7.56	6.66	5.18	2.95	0.03	-3.4	-7	-10.47	-13.58	-16.22	-18.45	-20.51	-22.7	-25.31	-28.48	-32.01	-35.39	-37.83	-38.55	-37.01	-33.13	-27.37	-20.55	-13.62	-7.31	-1.92	2.61	6.58	10.26	13.7	16.72	18.99	20.29	20.65	20.39	19.98	19.83	20.06	20.47	20.72	20.49	19.73	18.63	17.53	16.7	16.15	15.65	14.87	13.54	11.59	9.2	6.61	4.07	1.63	-0.76	-3.27	-6	-8.94	-12.01	-15.14	-18.27	-21.46	-24.71	-27.93	-30.77	-32.75	-33.33	-32.21	-29.36	-25.05	-19.78	-14.08
-13.58	-16.22	-18.45	-20.51	-22.7	-25.31	-28.48	-32.01	-35.39	-37.83	-38.55	-37.01	-33.13	-27.37	-20.55	-13.62	-7.31	-1.92	2.61	6.58	10.26	13.7	16.72	18.99	20.29	20.65	20.39	19.98	19.83	20.06	20.47	20.72	20.49	19.73	18.63	17.53	16.7	16.15	15.65	14.87	13.54	11.59	9.2	6.61	4.07	1.63	-0.76	-3.27	-6	-8.94	-12.01	-15.14	-18.27	-21.46	-24.71	-27.93	-30.77	-32.75	-33.33	-32.21	-29.36	-25.05	-19.78	-14.08	-8.36	-2.92	2.13	6.74	10.91	14.55	17.51	19.58	20.68	20.94	20.76	20.63	20.95	21.76	22.74	23.4	23.35	22.52	21.19	19.78	18.64	17.84	17.14	16.24	14.88	12.96	10.58	7.91	5.11	2.3	-0.43	-3.02	-5.47	-7.85	-10.34	-13.19	-16.66	-20.88	-25.75	-30.93	-35.82	-39.73	-41.96	-42.02	-39.68	-35.09	-28.74	-21.36	-13.73	-6.47	0.1	5.91	11.03	15.47	19.1	21.68	23.08	23.41	23.09	22.66	22.62	23.18	24.24	25.41
-8.36	-2.92	2.13	6.74	10.91	14.55	17.51	19.58	20.68	20.94	20.76	20.63	20.95	21.76	22.74	23.4	23.35	22.52	21.19	19.78	18.64	17.84	17.14	16.24	14.88	12.96	10.58	7.91	5.11	2.3	-0.43	-3.02	-5.47	-7.85	-10.34	-13.19	-16.66	-20.88	-25.75	-30.93	-35.82	-39.73	-41.96	-42.02	-39.68	-35.09	-28.74	-21.36	-13.73	-6.47	0.1	5.91	11.03	15.47	19.1	21.68	23.08	23.41	23.09	22.66	22.62	23.18	24.24	25.41	26.24	26.37	25.64	24.15	22.1	19.81	17.56	15.61	14.08	12.96	12.01	10.88	9.2	6.72	3.48	-0.22	-3.86	-7	-9.48	-11.53	-13.59	-16.14	-19.4	-23.27	-27.43	-31.52	-35.22	-38.22	-40.18	-40.59	-38.93	-34.91	-28.64	-20.71	-12.03	-3.54	4.01	10.24	15.08	18.6	21.01	22.57	23.61	24.49	25.45	26.54	27.61	28.41	28.76	28.6	28.07	27.29	26.35	25.22	23.86	22.35	20.85	19.57	18.59	17.75	16.69	15.03	12.66	9.71
26.24	26.37	25.64	24.15	22.1	19.81	17.56	15.61	14.08	12.96	12.01	10.88	9.2	6.72	3.48	-0.22	-3.86	-7	-9.48	-11.53	-13.59	-16.14	-19.4	-23.27	-27.43	-31.52	-35.22	-38.22	-40.18	-40.59	-38.93	-34.91	-28.64	-20.71	-12.03	-3.54	4.01	10.24	15.08	18.6	21.01	22.57	23.61	24.49	25.45	26.54	27.61	28.41	28.76	28.6	28.07	27.29	26.35	25.22	23.86	22.35	20.85	19.57	18.59	17.75	16.69	15.03	12.66	9.71	6.5	3.34	0.38	-2.46	-5.28	-8.15	-11	-13.75	-16.44	-19.31	-22.69	-26.72	-31.21	-35.57	-38.93	-40.49	-39.79	-36.82	-31.97	-25.83	-19	-12	-5.21	1.11	6.77	11.6	15.53	18.57	20.76	22.22	23.11	23.6	23.86	24.03	24.16	24.22	24.1	23.68	22.92	21.88	20.76	19.74	18.92	18.25	17.56	16.63	15.28	13.48	11.24	8.66	5.8	2.76	-0.34	-3.32	-6.03	-8.38	-10.42	-12.35	-14.48	-17.1	-20.39	-24.31	-28.55	-32.65
6.5	3.34	0.38	-2.46	-5.28	-8.15	-11	-13.75	-16.44	-19.31	-22.69	-26.72	-31.21	-35.57	-38.93	-40.49	-39.79	-36.82	-31.97	-25.83	-19	-12	-5.21	1.11	6.77	11.6	15.53	18.57	20.76	22.22	23.11	23.6	23.86	24.03	24.16	24.22	24.1	23.68	22.92	21.88	20.76	19.74	18.92	18.25	17.56	16.63	15.28	13.48	11.24	8.66	5.8	2.76	-0.34	-3.32	-6.03	-8.38	-10.42	-12.35	-14.48	-17.1	-20.39	-24.31	-28.55	-32.65	-36	-37.97	-38.01	-35.84	-31.52	-25.52	-18.64	-11.73	-5.43	-0.02	4.61	8.69	12.37	15.59	18.11	19.75	20.54	20.77	20.84	21.11	21.72	22.54	23.36	23.92	24.07	23.72	22.85	21.54	19.89	18.07	16.28	14.63	13.13	11.65	10.02	8.02	5.53	2.61	-0.54	-3.56	-6.1	-7.97	-9.21	-10.12	-11.15	-12.75	-15.24	-18.7	-23.01	-27.83	-32.64	-36.78	-39.57	-40.42	-39.01	-35.35	-29.84	-23.06	-15.68	-8.29	-1.32	4.92	10.18	14.27
-36	-37.97	-38.01	-35.84	-31.52	-25.52	-18.64	-11.73	-5.43	-0.02	4.61	8.69	12.37	15.59	18.11	19.75	20.54	20.77	20.84	21.11	21.72	22.54	23.36	23.92	24.07	23.72	22.85	21.54	19.89	18.07	16.28	14.63	13.13	11.65	10.02	8.02	5.53	2.61	-0.54	-3.56	-6.1	-7.97	-9.21	-10.12	-11.15	-12.75	-15.24	-18.7	-23.01	-27.83	-32.64	-36.78	-39.57	-40.42	-39.01	-35.35	-29.84	-23.06	-15.68	-8.29	-1.32	4.92	10.18	14.27	17.13	18.85	19.72	20.17	20.63	21.34	22.29	23.32	24.2	24.72	24.84	24.62	24.16	23.51	22.74	21.81	20.71	19.42	17.94	16.26	14.41	12.46	10.43	8.33	6.06	3.54	0.78	-2.13	-4.91	-7.31	-9.27	-10.98	-12.79	-15.09	-18.05	-21.59	-25.47	-29.4	-33.09	-36.22	-38.45	-39.28	-38.27	-35.24	-30.4	-24.4	-17.96	-11.72	-5.95	-0.7	4.1	8.4	12.09	15.03	17.21	18.75	19.82	20.51	20.84	20.78	20.43	19.99	19.72	19.72
17.13	18.85	19.72	20.17	20.63	21.34	22.29	23.32	24.2	24.72	24.84	24.62	24.16	23.51	22.74	21.81	20.71	19.42	17.94	16.26	14.41	12.46	10.43	8.33	6.06	3.54	0.78	-2.13	-4.91	-7.31	-9.27	-10.98	-12.79	-15.09	-18.05	-21.59	-25.47	-29.4	-33.09	-36.22	-38.45	-39.28	-38.27	-35.24	-30.4	-24.4	-17.96	-11.72	-5.95	-0.7	4.1	8.4	12.09	15.03	17.21	18.75	19.82	20.51	20.84	20.78	20.43	19.99	19.72	19.72	19.97	20.26	20.39	20.26	19.87	19.22	18.26	16.9	15.04	12.77	10.34	8.07	6.28	5.06	4.29	3.63	2.71	1.22	-0.94	-3.63	-6.62	-9.6	-12.4	-15.11	-17.94	-21.27	-25.3	-29.98	-34.82	-39.08	-41.9	-42.61	-40.96	-37.17	-31.84	-25.72	-19.42	-13.31	-7.53	-2.08	2.95	7.36	10.92	13.52	15.26	16.46	17.51	18.59	19.67	20.52	20.88	20.69	20.08	19.31	18.65	18.21	17.98	17.85	17.71	17.43	16.92	16.07	14.81	13.1
19.97	20.26	20.39	20.26	19.87	19.22	18.26	16.9	15.04	12.77	10.34	8.07	6.28	5.06	4.29	3.63	2.71	1.22	-0.94	-3.63	-6.62	-9.6	-12.4	-15.11	-17.94	-21.27	-25.3	-29.98	-34.82	-39.08	-41.9	-42.61	-40.96	-37.17	-31.84	-25.72	-19.42	-13.31	-7.53	-2.08	2.95	7.36	10.92	13.52	15.26	16.46	17.51	18.59	19.67	20.52	20.88	20.69	20.08	19.31	18.65	18.21	17.98	17.85	17.71	17.43	16.92	16.07	14.81	13.1	11.03	8.75	6.48	4.33	2.35	0.45	-1.51	-3.66	-6.04	-8.6	-11.19	-13.65	-15.86	-17.84	-19.76	-21.86	-24.35	-27.27	-30.36	-33.08	-34.72	-34.64	-32.45	-28.18	-22.25	-15.35	-8.3	-1.75	3.85	8.28	11.52	13.65	14.81	15.29	15.4	15.51	15.86	16.5	17.3	17.99	18.33	18.25	17.8	17.11	16.28	15.33	14.23	13.01	11.75	10.57	9.53	8.53	7.37	5.83	3.79	1.34	-1.3	-3.95	-6.45	-8.82	-11.12	-13.41	-15.74	-18.18
11.03	8.75	6.48	4.33	2.35	0.45	-1.51	-3.66	-6.04	-8.6	-11.19	-13.65	-15.86	-17.84	-19.76	-21.86	-24.35	-27.27	-30.36	-33.08	-34.72	-34.64	-32.45	-28.18	-22.25	-15.35	-8.3	-1.75	3.85	8.28	11.52	13.65	14.81	15.29	15.4	15.51	15.86	16.5	17.3	17.99	18.33	18.25	17.8	17.11	16.28	15.33	14.23	13.01	11.75	10.57	9.53	8.53	7.37	5.83	3.79	1.34	-1.3	-3.95	-6.45	-8.82	-11.12	-13.41	-15.74	-18.18	-20.89	-24.04	-27.72	-31.69	-35.38	-38.07	-39.03	-37.9	-34.74	-30.01	-24.3	-18.11	-11.81	-5.65	0.16	5.32	9.62	12.95	15.37	17.05	18.18	18.87	19.2	19.29	19.35	19.6	20.14	20.89	21.57	21.88	21.66	20.95	19.89	18.61	17.09	15.22	12.92	10.28	7.54	4.95	2.63	0.47	-1.78	-4.31	-7.13	-9.97	-12.47	-14.41	-15.86	-17.22	-18.97	-21.5	-24.86	-28.79	-32.79	-36.35	-39.07	-40.64	-40.84	-39.41	-36.2	-31.23	-24.87	-17.81
-20.89	-24.04	-27.72	-31.69	-35.38	-38.07	-39.03	-37.9	-34.74	-30.01	-24.3	-18.11	-11.81	-5.65	0.16	5.32	9.62	12.95	15.37	17.05	18.18	18.87	19.2	19.29	19.35	19.6	20.14	20.89	21.57	21.88	21.66	20.95	19.89	18.61	17.09	15.22	12.92	10.28	7.54	4.95	2.63	0.47	-1.78	-4.31	-7.13	-9.97	-12.47	-14.41	-15.86	-17.22	-18.97	-21.5	-24.86	-28.79	-32.79	-36.35	-39.07	-40.64	-40.84	-39.41	-36.2	-31.23	-24.87	-17.81	-10.82	-4.5	0.92	5.56	9.7	13.56	17.09	20.11	22.34	23.68	24.18	24.06	23.55	22.86	22.16	21.57	21.21	21.09	21.12	21.08	20.71	19.84	18.43	16.66	14.69	12.66	10.61	8.46	6.15	3.73	1.26	-1.16	-3.46	-5.71	-8.01	-10.43	-13.03	-15.75	-18.6	-21.67	-25.15	-29.19	-33.7	-38.17	-41.74	-43.42	-42.56	-39.05	-33.4	-26.53	-19.36	-12.52	-6.28	-0.61	4.54	9.15	13.08	16.22	18.51	20.02	20.92	21.37	21.57	21.6
-10.82	-4.5	0.92	5.56	9.7	13.56	17.09	20.11	22.34	23.68	24.18	24.06	23.55	22.86	22.16	21.57	21.21	21.09	21.12	21.08	20.71	19.84	18.43	16.66	14.69	12.66	10.61	8.46	6.15	3.73	1.26	-1.16	-3.46	-5.71	-8.01	-10.43	-13.03	-15.75	-18.6	-21.67	-25.15	-29.19	-33.7	-38.17	-41.74	-43.42	-42.56	-39.05	-33.4	-26.53	-19.36	-12.52	-6.28	-0.61	4.54	9.15	13.08	16.22	18.51	20.02	20.92	21.37	21.57	21.6	21.51	21.29	20.88	20.26	19.5	18.72	18.1	17.67	17.32	16.86	16.08	14.93	13.43	11.68	9.67	7.3	4.46	1.26	-1.95	-4.72	-6.7	-7.9	-8.76	-9.98	-12.2	-15.67	-20.24	-25.33	-30.16	-34	-36.23	-36.46	-34.54	-30.61	-25.05	-18.45	-11.45	-4.65	1.57	6.95	11.43	14.99	17.61	19.31	20.14	20.25	19.92	19.48	19.28	19.51	20.14	20.95	21.58	21.75	21.31	20.36	19.09	17.71	16.3	14.83	13.18	11.2	8.83	6.05
21.51	21.29	20.88	20.26	19.5	18.72	18.1	17.67	17.32	16.86	16.08	14.93	13.43	11.68	9.67	7.3	4.46	1.26	-1.95	-4.72	-6.7	-7.9	-8.76	-9.98	-12.2	-15.67	-20.24	-25.33	-30.16	-34	-36.23	-36.46	-34.54	-30.61	-25.05	-18.45	-11.45	-4.65	1.57	6.95	11.43	14.99	17.61	19.31	20.14	20.25	19.92	19.48	19.28	19.51	20.14	20.95	21.58	21.75	21.31	20.36	19.09	17.71	16.3	14.83	13.18	11.2	8.83	6.05	2.88	-0.53	-3.96	-7.15	-9.86	-12.03	-13.88	-15.81	-18.23	-21.36	-25.07	-28.91	-32.26	-34.48	-35.14	-34.04	-31.21	-26.88	-21.35	-15.03	-8.4	-1.98	3.76	8.5	12.15	14.81	16.72	18.1	19.12	19.81	20.2	20.35	20.42	20.59	20.91	21.26	21.38	21.04	20.2	19.02	17.81	16.81	16.01	15.21	14.07	12.33	9.9	6.9	3.61	0.24	-3.06	-6.26	-9.36	-12.29	-15.01	-17.44	-19.68	-21.96	-24.6	-27.82	-31.5	-35.07	-37.57	-38.05
2.88	-0.53	-3.96	-7.15	-9.86	-12.03	-13.88	-15.81	-18.23	-21.36	-25.07	-28.91	-32.26	-34.48	-35.14	-34.04	-31.21	-26.88	-21.35	-15.03	-8.4	-1.98	3.76	8.5	12.15	14.81	16.72	18.1	19.12	19.81	20.2	20.35	20.42	20.59	20.91	21.26	21.38	21.04	20.2	19.02	17.81	16.81	16.01	15.21	14.07	12.33	9.9	6.9	3.61	0.24	-3.06	-6.26	-9.36	-12.29	-15.01	-17.44	-19.68	-21.96	-24.6	-27.82	-31.5	-35.07	-37.57	-38.05	-35.94	-31.34	-24.95	-17.8	-10.84	-4.55	0.99	5.91	10.28	13.95	16.68	18.37	19.26	19.88	20.76	22.13	23.73	25.01	25.41	24.75	23.33	21.73	20.48	19.77	19.38	18.9	18.01	16.63	14.9	12.99	10.96	8.75	6.28	3.6	0.86	-1.75	-4.12	-6.31	-8.47	-10.81	-13.41	-16.35	-19.68	-23.42	-27.5	-31.63	-35.26	-37.67	-38.22	-36.58	-32.82	-27.39	-20.96	-14.25	-7.85	-2.12	2.84	7.15	10.99	14.45	17.41	19.6	20.77	20.84
-35.94	-31.34	-24.95	-17.8	-10.84	-4.55	0.99	5.91	10.28	13.95	16.68	18.37	19.26	19.88	20.76	22.13	23.73	25.01	25.41	24.75	23.33	21.73	20.48	19.77	19.38	18.9	18.01	16.63	14.9	12.99	10.96	8.75	6.28	3.6	0.86	-1.75	-4.12	-6.31	-8.47	-10.81	-13.41	-16.35	-19.68	-23.42	-27.5	-31.63	-35.26	-37.67	-38.22	-36.58	-32.82	-27.39	-20.96	-14.25	-7.85	-2.12	2.84	7.15	10.99	14.45	17.41	19.6	20.77	20.84	20.06	18.93	18.01	17.66	17.97	18.72	19.59	20.27	20.58	20.47	19.98	19.1	17.87	16.28	14.34	12.06	9.51	6.75	3.88	0.99	-1.84	-4.57	-7.26	-9.99	-12.87	-16.01	-19.52	-23.36	-27.42	-31.45	-35.15	-38.14	-40.07	-40.62	-39.54	-36.75	-32.35	-26.76	-20.52	-14.26	-8.43	-3.23	1.35	5.47	9.16	12.32	14.75	16.35	17.27	17.88	18.58	19.63	21.02	22.46	23.64	24.36	24.54	24.22	23.47	22.38	21.1	19.79	18.6	17.51
20.06	18.93	18.01	17.66	17.97	18.72	19.59	20.27	20.58	20.47	19.98	19.1	17.87	16.28	14.34	12.06	9.51	6.75	3.88	0.99	-1.84	-4.57	-7.26	-9.99	-12.87	-16.01	-19.52	-23.36	-27.42	-31.45	-35.15	-38.14	-40.07	-40.62	-39.54	-36.75	-32.35	-26.76	-20.52	-14.26	-8.43	-3.23	1.35	5.47	9.16	12.32	14.75	16.35	17.27	17.88	18.58	19.63	21.02	22.46	23.64	24.36	24.54	24.22	23.47	22.38	21.1	19.79	18.6	17.51	16.33	14.71	12.37	9.25	5.64	2	-1.26	-4.05	-6.6	-9.32	-12.59	-16.48	-20.75	-24.95	-28.54	-30.98	-31.83	-30.83	-27.88	-23.19	-17.24	-10.66	-4.13	1.78	6.74	10.61	13.41	15.24	16.24	16.63	16.67	16.63	16.69	16.93	17.29	17.67	17.94	18.06	18	17.72	17.16	16.34	15.24	13.91	12.4	10.72	8.8	6.54	3.9	0.93	-2.24	-5.39	-8.39	-11.21	-13.99	-16.91	-20.12	-23.67	-27.4	-30.99	-34.07	-36.22	-37.14	-36.65
16.33	14.71	12.37	9.25	5.64	2	-1.26	-4.05	-6.6	-9.32	-12.59	-16.48	-20.75	-24.95	-28.54	-30.98	-31.83	-30.83	-27.88	-23.19	-17.24	-10.66	-4.13	1.78	6.74	10.61	13.41	15.24	16.24	16.63	16.67	16.63	16.69	16.93	17.29	17.67	17.94	18.06	18	17.72	17.16	16.34	15.24	13.91	12.4	10.72	8.8	6.54	3.9	0.93	-2.24	-5.39	-8.39	-11.21	-13.99	-16.91	-20.12	-23.67	-27.4	-30.99	-34.07	-36.22	-37.14	-36.65	-34.68	-31.34	-26.84	-21.54	-15.9	-10.41	-5.44	-1.12	2.59	5.9	8.9	11.57	13.79	15.49	16.77	17.9	19.15	20.63	22.15	23.28	23.65	23.1	21.76	20.02	18.22	16.54	14.96	13.3	11.43	9.29	6.96	4.55	2.17	-0.17	-2.45	-4.66	-6.85	-9.1	-11.54	-14.33	-17.55	-21.11	-24.66	-27.73	-29.72	-30.19	-28.98	-26.19	-22.16	-17.32	-12.05	-6.66	-1.35	3.73	8.43	12.57	15.95	18.38	19.78	20.28	20.12	19.61	19.01	18.49
-34.68	-31.34	-26.84	-21.54	-15.9	-10.41	-5.44	-1.12	2.59	5.9	8.9	11.57	13.79	15.49	16.77	17.9	19.15	20.63	22.15	23.28	23.65	23.1	21.76	20.02	18.22	16.54	14.96	13.3	11.43	9.29	6.96	4.55	2.17	-0.17	-2.45	-4.66	-6.85	-9.1	-11.54	-14.33	-17.55	-21.11	-24.66	-27.73	-29.72	-30.19	-28.98	-26.19	-22.16	-17.32	-12.05	-6.66	-1.35	3.73	8.43	12.57	15.95	18.38	19.78	20.28	20.12	19.61	19.01	18.49	18.11	17.9	17.92	18.23	18.84	19.63	20.4	20.85	20.79	20.15	19.06	17.69	16.17	14.53	12.62	10.23	7.24	3.66	-0.33	-4.4	-8.28	-11.84	-15.15	-18.47	-22.07	-26.04	-30.22	-34.16	-37.25	-38.95	-38.91	-37.06	-33.65	-29.11	-23.89	-18.44	-13.05	-7.86	-2.92	1.69	5.82	9.21	11.64	13.01	13.48	13.41	13.27	13.38	13.82	14.41	14.93	15.19	15.17	14.99	14.74	14.48	14.12	13.56	12.7	11.46	9.8	7.69	5.17	2.4
18.11	17.9	17.92	18.23	18.84	19.63	20.4	20.85	20.79	20.15	19.06	17.69	16.17	14.53	12.62	10.23	7.24	3.66	-0.33	-4.4	-8.28	-11.84	-15.15	-18.47	-22.07	-26.04	-30.22	-34.16	-37.25	-38.95	-38.91	-37.06	-33.65	-29.11	-23.89	-18.44	-13.05	-7.86	-2.92	1.69	5.82	9.21	11.64	13.01	13.48	13.41	13.27	13.38	13.82	14.41	14.93	15.19	15.17	14.99	14.74	14.48	14.12	13.56	12.7	11.46	9.8	7.69	5.17	2.4	-0.4	-2.97	-5.14	-7.01	-8.85	-11.08	-14.04	-17.79	-22.03	-26.16	-29.43	-31.19	-31.11	-29.15	-25.55	-20.7	-15	-8.86	-2.64	3.27	8.52	12.81	15.99	18.05	19.12	19.37	19.06	18.47	17.93	17.73	17.97	18.6	19.38	20.07	20.47	20.54	20.28	19.69	18.71	17.19	15.05	12.38	9.36	6.26	3.35	0.8	-1.38	-3.21	-4.85	-6.58	-8.72	-11.59	-15.35	-19.86	-24.71	-29.24	-32.75	-34.63	-34.52	-32.35	-28.34	-22.91	-16.7	-10.4
