-0	-0	-0	-0	-0	-0	-0	-0	-0	-0	0	0.01	0.01	-0	-0.03	-0.05	-0.05	0	0.13	0.36	0.66	1.01	1.37	1.72	2.06	2.4	2.79	3.24	3.8	4.42	5.06	5.66	6.2	6.68	7.15	7.68	8.31	9.14	10.09	11.04	11.88	12.56	13.14	13.76	14.65	15.96	17.91	20.32	22.9	25.38	27.58	29.57	31.68	34.32	37.81	42.54	48.15	54.1	59.83	64.97	69.58	74.14	79.34	85.71	93.76	103	112.62	121.73	129.77	136.75	143.3	150.75	157.77	166.64	177.95	191.79	206.97	220.57	228.25	225.36	208.53	176.87	132.76	80.05	23.07	-34.94	-92.44	-149.16	-205.23	-260.37	-313.74	-363.87	-409.83	-450.91	-486.5	-515.74	-537.23	-549.22	-549.96	-538.37	-514.21	-478.67	-433.88	-382.45	-327.02	-269.84	-212.63	-156.66	-102.95	-52.37	-5.9	35.58	71.43	101.35	125.5	144.38	158.69	169.15	176.37	180.75	182.57	182.07	179.51	175.23	169.65	163.18	156.15	148.81
93.76	103	112.62	121.73	129.77	136.75	143.3	150.75	157.77	166.64	177.95	191.79	206.97	220.57	228.25	225.36	208.53	176.87	132.76	80.05	23.07	-34.94	-92.44	-149.16	-205.23	-260.37	-313.74	-363.87	-409.83	-450.91	-486.5	-515.74	-537.23	-549.22	-549.96	-538.37	-514.21	-478.67	-433.88	-382.45	-327.02	-269.84	-212.63	-156.66	-102.95	-52.37	-5.9	35.58	71.43	101.35	125.5	144.38	158.69	169.15	176.37	180.75	182.57	182.07	179.51	175.23	169.65	163.18	156.15	148.81	141.3	133.69	126.02	118.33	110.69	103.16	95.8	88.68	81.83	75.25	68.95	62.95	57.25	51.86	46.78	42.03	37.59	33.45	29.61	26.07	22.81	19.83	17.11	14.67	12.48	10.54	8.83	7.35	6.07	4.97	4.05	3.27	2.62	2.09	1.65	1.3	1.01	0.79	0.61	0.48	0.37	0.28	0.22	0.18	0.17	0.17	0.18	0.19	0.18	0.13	0.06	-0.02	-0.07	-0.08	-0.04	0.02	0.09	0.12	0.1	0.04	-0.03	-0.07	-0.04	0.04
141.3	133.69	126.02	118.33	110.69	103.16	95.8	88.68	81.83	75.25	68.95	62.95	57.25	51.86	46.78	42.03	37.59	33.45	29.61	26.07	22.81	19.83	17.11	14.67	12.48	10.54	8.83	7.35	6.07	4.97	4.05	3.27	2.62	2.09	1.65	1.3	1.01	0.79	0.61	0.48	0.37	0.28	0.22	0.18	0.17	0.17	0.18	0.19	0.18	0.13	0.06	-0.02	-0.07	-0.08	-0.04	0.02	0.09	0.12	0.1	0.04	-0.03	-0.07	-0.04	0.04	0.16	0.26	0.28	0.2	0.05	-0.12	-0.19	-0.12	0.12	0.43	0.69	0.74	0.53	0.11	-0.35	-0.61	-0.5	-0	0.7	1.29	1.46	1.07	0.23	-0.7	-1.28	-1.17	-0.34	0.87	1.92	2.27	1.71	0.43	-1.01	-1.92	-1.88	-0.85	0.78	2.33	3.18	2.9	1.16	-2.22	-7.11	-12.73	-17.5	-19.34	-16.58	-8.93	2.09	13.46	21.89	25.27	23.51	18.34	12.21	7.05	3.51	1.18	-0.71	-2.46	-3.72	-3.88	-2.73	-0.75
0.16	0.26	0.28	0.2	0.05	-0.12	-0.19	-0.12	0.12	0.43	0.69	0.74	0.53	0.11	-0.35	-0.61	-0.5	-0	0.7	1.29	1.46	1.07	0.23	-0.7	-1.28	-1.17	-0.34	0.87	1.92	2.27	1.71	0.43	-1.01	-1.92	-1.88	-0.85	0.78	2.33	3.18	2.9	1.16	-2.22	-7.11	-12.73	-17.5	-19.34	-16.58	-8.93	2.09	13.46	21.89	25.27	23.51	18.34	12.21	7.05	3.51	1.18	-0.71	-2.46	-3.72	-3.88	-2.73	-0.75	1.04	1.63	0.57	-1.72	-4.18	-5.77	-5.96	-4.98	-3.67	-2.94	-3.34	-4.71	-6.39	-7.54	-7.61	-6.57	-4.91	-3.32	-2.46	-2.58	-3.62	-5.09	-6.35	-6.73	-5.72	-3.05	1.15	6.33	11.63	16.09	18.95	19.85	18.92	16.66	13.66	10.47	7.47	4.95	3.14	2.3	2.59	4	6.22	8.73	10.89	12.16	12.22	11	8.7	5.81	2.89	0.45	-1.21	-2.01	-2.09	-1.74	-1.27	-0.97	-1.09	-1.77	-3.07	-4.92	-7.18	-9.65
1.04	1.63	0.57	-1.72	-4.18	-5.77	-5.96	-4.98	-3.67	-2.94	-3.34	-4.71	-6.39	-7.54	-7.61	-6.57	-4.91	-3.32	-2.46	-2.58	-3.62	-5.09	-6.35	-6.73	-5.72	-3.05	1.15	6.33	11.63	16.09	18.95	19.85	18.92	16.66	13.66	10.47	7.47	4.95	3.14	2.3	2.59	4	6.22	8.73	10.89	12.16	12.22	11	8.7	5.81	2.89	0.45	-1.21	-2.01	-2.09	-1.74	-1.27	-0.97	-1.09	-1.77	-3.07	-4.92	-7.18	-9.65	-12.23	-14.94	-17.98	-21.57	-25.87	-30.68	-35.4	-38.99	-40.23	-38.08	-32.07	-22.43	-10.14	3.34	16.43	27.79	36.56	42.35	45.18	45.31	43.22	39.54	35.01	30.39	26.38	23.43	21.67	20.98	21.01	21.35	21.59	21.38	20.49	18.76	16.09	12.45	7.85	2.41	-3.61	-9.78	-15.61	-20.61	-24.5	-27.24	-28.96	-29.91	-30.31	-30.38	-30.36	-30.55	-31.23	-32.48	-34	-35.01	-34.58	-31.87	-26.58	-18.95	-9.7	0.34	10.47	20.09	28.63	35.26
-12.23	-14.94	-17.98	-21.57	-25.87	-30.68	-35.4	-38.99	-40.23	-38.08	-32.07	-22.43	-10.14	3.34	16.43	27.79	36.56	42.35	45.18	45.31	43.22	39.54	35.01	30.39	26.38	23.43	21.67	20.98	21.01	21.35	21.59	21.38	20.49	18.76	16.09	12.45	7.85	2.41	-3.61	-9.78	-15.61	-20.61	-24.5	-27.24	-28.96	-29.91	-30.31	-30.38	-30.36	-30.55	-31.23	-32.48	-34	-35.01	-34.58	-31.87	-26.58	-18.95	-9.7	0.34	10.47	20.09	28.63	35.26	38.96	38.76	34.14	25.51	14.23	2.4	-7.84	-14.93	-18.38	-18.76	-17.3	-15.28	-13.53	-12.33	-11.54	-11.02	-10.86	-11.39	-12.95	-15.6	-19.02	-22.51	-25.37	-27.08	-27.52	-26.99	-26.07	-25.41	-25.62	-27.07	-29.78	-33.32	-36.87	-39.33	-39.58	-36.82	-30.79	-21.97	-11.47	-0.7	9.04	16.92	22.73	26.72	29.3	30.75	31.09	30.29	28.44	25.99	23.54	21.76	20.95	21.04	21.6	22.08	22.09	21.46	20.22	18.5	16.39	13.97	11.21	8.17
38.96	38.76	34.14	25.51	14.23	2.4	-7.84	-14.93	-18.38	-18.76	-17.3	-15.28	-13.53	-12.33	-11.54	-11.02	-10.86	-11.39	-12.95	-15.6	-19.02	-22.51	-25.37	-27.08	-27.52	-26.99	-26.07	-25.41	-25.62	-27.07	-29.78	-33.32	-36.87	-39.33	-39.58	-36.82	-30.79	-21.97	-11.47	-0.7	9.04	16.92	22.73	26.72	29.3	30.75	31.09	30.29	28.44	25.99	23.54	21.76	20.95	21.04	21.6	22.08	22.09	21.46	20.22	18.5	16.39	13.97	11.21	8.17	4.98	1.82	-1.11	-3.69	-5.97	-8.11	-10.43	-13.18	-16.57	-20.75	-25.81	-31.72	-38.19	-44.52	-49.55	-51.9	-50.48	-44.88	-35.74	-24.39	-12.25	-0.27	11.06	21.32	29.68	34.88	35.77	32.18	25.31	17.35	10.58	6.25	4.34	4.09	4.82	6.58	9.96	15.38	22.36	29.51	35.08	37.89	37.84	35.74	32.69	29.4	25.99	22.07	17.29	11.63	5.58	-0.14	-4.89	-8.47	-11.24	-13.96	-17.42	-22.07	-27.73	-33.53	-38.15	-40.25	-38.84	-33.6
4.98	1.82	-1.11	-3.69	-5.97	-8.11	-10.43	-13.18	-16.57	-20.75	-25.81	-31.72	-38.19	-44.52	-49.55	-51.9	-50.48	-44.88	-35.74	-24.39	-12.25	-0.27	11.06	21.32	29.68	34.88	35.77	32.18	25.31	17.35	10.58	6.25	4.34	4.09	4.82	6.58	9.96	15.38	22.36	29.51	35.08	37.89	37.84	35.74	32.69	29.4	25.99	22.07	17.29	11.63	5.58	-0.14	-4.89	-8.47	-11.24	-13.96	-17.42	-22.07	-27.73	-33.53	-38.15	-40.25	-38.84	-33.6	-24.93	-13.82	-1.51	10.72	21.81	31.02	37.92	42.37	44.47	44.49	42.89	40.24	37.16	34.28	32.06	30.7	30.07	29.73	29.12	27.74	25.42	22.35	18.94	15.62	12.64	9.98	7.51	5.1	2.77	0.69	-1.03	-2.43	-3.75	-5.3	-7.29	-9.72	-12.38	-15	-17.42	-19.69	-22.04	-24.72	-27.97	-31.86	-36.21	-40.6	-44.28	-46.32	-45.73	-41.86	-34.59	-24.57	-12.97	-1.22	9.47	18.31	25.04	29.72	32.55	33.83	33.84	32.95	31.63	30.38
-24.93	-13.82	-1.51	10.72	21.81	31.02	37.92	42.37	44.47	44.49	42.89	40.24	37.16	34.28	32.06	30.7	30.07	29.73	29.12	27.74	25.42	22.35	18.94	15.62	12.64	9.98	7.51	5.1	2.77	0.69	-1.03	-2.43	-3.75	-5.3	-7.29	-9.72	-12.38	-15	-17.42	-19.69	-22.04	-24.72	-27.97	-31.86	-36.21	-40.6	-44.28	-46.32	-45.73	-41.86	-34.59	-24.57	-12.97	-1.22	9.47	18.31	25.04	29.72	32.55	33.83	33.84	32.95	31.63	30.38	29.67	29.82	30.91	32.74	34.86	36.69	37.79	37.94	37.28	36.21	35.16	34.31	33.56	32.55	30.93	28.59	25.77	22.93	20.51	18.71	17.4	16.21	14.81	13.03	11	9.05	7.52	6.68	6.57	6.99	7.6	8.06	8.11	7.67	6.84	5.98	5.53	5.92	7.19	8.84	9.75	8.48	3.84	-4.54	-15.86	-28.28	-39.48	-47.44	-51.05	-50.43	-46.69	-41.39	-35.98	-31.29	-27.49	-24.24	-21.02	-17.54	-13.93	-10.8	-9.11	-9.77	-13.3	-19.53
29.67	29.82	30.91	32.74	34.86	36.69	37.79	37.94	37.28	36.21	35.16	34.31	33.56	32.55	30.93	28.59	25.77	22.93	20.51	18.71	17.4	16.21	14.81	13.03	11	9.05	7.52	6.68	6.57	6.99	7.6	8.06	8.11	7.67	6.84	5.98	5.53	5.92	7.19	8.84	9.75	8.48	3.84	-4.54	-15.86	-28.28	-39.48	-47.44	-51.05	-50.43	-46.69	-41.39	-35.98	-31.29	-27.49	-24.24	-21.02	-17.54	-13.93	-10.8	-9.11	-9.77	-13.3	-19.53	-27.57	-35.98	-43.34	-48.58	-51.41	-52.17	-51.68	-50.8	-50.2	-50.24	-51.04	-52.55	-54.57	-56.74	-58.59	-59.65	-59.66	-58.84	-57.89	-57.79	-59.4	-62.95	-67.83	-72.61	-75.48	-74.81	-69.7	-60.12	-46.76	-30.59	-12.49	6.88	26.78	46.2	63.52	76.88	84.65	86.1	81.78	73.41	63.39	53.98	46.81	42.51	40.86	41.06	41.97	42.33	40.81	36.07	26.89	12.56	-6.88	-30.32	-55.76	-80.65	-102.47	-119.12	-129.1	-131.45	-125.63	-111.57	-90.02	-62.81
-27.57	-35.98	-43.34	-48.58	-51.41	-52.17	-51.68	-50.8	-50.2	-50.24	-51.04	-52.55	-54.57	-56.74	-58.59	-59.65	-59.66	-58.84	-57.89	-57.79	-59.4	-62.95	-67.83	-72.61	-75.48	-74.81	-69.7	-60.12	-46.76	-30.59	-12.49	6.88	26.78	46.2	63.52	76.88	84.65	86.1	81.78	73.41	63.39	53.98	46.81	42.51	40.86	41.06	41.97	42.33	40.81	36.07	26.89	12.56	-6.88	-30.32	-55.76	-80.65	-102.47	-119.12	-129.1	-131.45	-125.63	-111.57	-90.02	-62.81	-32.94	-4.05	20.51	38.64	49.92	55.45	57.04	56.39	54.57	52.1	49.36	46.97	45.81	46.65	49.63	54.01	58.32	60.9	60.5	56.63	49.59	40.14	29.19	17.57	6.15	-4.12	-12.06	-16.48	-16.47	-11.73	-2.68	9.65	23.87	38.47	52.02	63.43	72.14	78.22	82.23	84.93	86.83	87.87	87.5	85.03	80.12	73	64.39	55.25	46.34	38.05	30.45	23.49	17.05	11.05	5.37	-0.08	-5.23	-9.74	-12.94	-13.96	-12.08	-7.07	0.52	9.36
-32.94	-4.05	20.51	38.64	49.92	55.45	57.04	56.39	54.57	52.1	49.36	46.97	45.81	46.65	49.63	54.01	58.32	60.9	60.5	56.63	49.59	40.14	29.19	17.57	6.15	-4.12	-12.06	-16.48	-16.47	-11.73	-2.68	9.65	23.87	38.47	52.02	63.43	72.14	78.22	82.23	84.93	86.83	87.87	87.5	85.03	80.12	73	64.39	55.25	46.34	38.05	30.45	23.49	17.05	11.05	5.37	-0.08	-5.23	-9.74	-12.94	-13.96	-12.08	-7.07	0.52	9.36	17.62	23.48	25.57	23.43	17.53	9.21	0.24	-7.64	-13.17	-15.95	-16.45	-15.83	-15.52	-16.67	-19.86	-24.95	-31.31	-38.03	-44.26	-49.33	-52.85	-54.75	-55.23	-54.67	-53.5	-51.96	-50	-47.32	-43.54	-38.4	-32	-24.63	-16.81	-9.04	-1.78	4.55	9.61	13.1	14.82	14.8	13.28	10.67	7.43	3.94	0.43	-2.98	-6.19	-8.97	-11	-11.96	-11.69	-10.3	-8.22	-5.98	-3.95	-2.23	-0.63	1.13	3.15	5.24	6.9	7.58	6.83	4.48
17.62	23.48	25.57	23.43	17.53	9.21	0.24	-7.64	-13.17	-15.95	-16.45	-15.83	-15.52	-16.67	-19.86	-24.95	-31.31	-38.03	-44.26	-49.33	-52.85	-54.75	-55.23	-54.67	-53.5	-51.96	-50	-47.32	-43.54	-38.4	-32	-24.63	-16.81	-9.04	-1.78	4.55	9.61	13.1	14.82	14.8	13.28	10.67	7.43	3.94	0.43	-2.98	-6.19	-8.97	-11	-11.96	-11.69	-10.3	-8.22	-5.98	-3.95	-2.23	-0.63	1.13	3.15	5.24	6.9	7.58	6.83	4.48	0.63	-4.41	-10.18	-16.12	-21.57	-25.77	-28.07	-28.03	-25.58	-21.05	-15.18	-8.92	-3.21	1.23	4.16	5.75	6.42	6.5	6.06	4.95	3.02	0.41	-2.41	-4.87	-6.55	-7.51	-8.16	-9.01	-10.29	-11.91	-13.55	-14.92	-16.01	-17	-18.06	-19.15	-19.98	-20.15	-19.47	-18.07	-16.44	-15.23	-14.96	-15.75	-17.15	-18.25	-17.96	-15.43	-10.43	-3.48	4.32	11.71	17.76	22.07	24.76	26.18	26.65	26.25	25	23	20.62	18.44	17.07	16.82
0.63	-4.41	-10.18	-16.12	-21.57	-25.77	-28.07	-28.03	-25.58	-21.05	-15.18	-8.92	-3.21	1.23	4.16	5.75	6.42	6.5	6.06	4.95	3.02	0.41	-2.41	-4.87	-6.55	-7.51	-8.16	-9.01	-10.29	-11.91	-13.55	-14.92	-16.01	-17	-18.06	-19.15	-19.98	-20.15	-19.47	-18.07	-16.44	-15.23	-14.96	-15.75	-17.15	-18.25	-17.96	-15.43	-10.43	-3.48	4.32	11.71	17.76	22.07	24.76	26.18	26.65	26.25	25	23	20.62	18.44	17.07	16.82	17.57	18.79	19.89	20.36	20.02	18.98	17.48	15.7	13.75	11.67	9.45	7.05	4.23	0.52	-4.61	-11.44	-19.74	-28.54	-36.49	-42.22	-44.85	-44.11	-40.29	-33.91	-25.54	-15.7	-4.99	5.75	15.51	23.31	28.44	30.65	30.16	27.51	23.35	18.33	12.97	7.67	2.74	-1.6	-5.24	-8.2	-10.63	-12.81	-15	-17.34	-19.8	-22.22	-24.43	-26.47	-28.55	-31.08	-34.43	-38.75	-43.78	-48.89	-53.12	-55.46	-55.1	-51.63	-45.24	-36.62	-26.77	-16.74
17.57	18.79	19.89	20.36	20.02	18.98	17.48	15.7	13.75	11.67	9.45	7.05	4.23	0.52	-4.61	-11.44	-19.74	-28.54	-36.49	-42.22	-44.85	-44.11	-40.29	-33.91	-25.54	-15.7	-4.99	5.75	15.51	23.31	28.44	30.65	30.16	27.51	23.35	18.33	12.97	7.67	2.74	-1.6	-5.24	-8.2	-10.63	-12.81	-15	-17.34	-19.8	-22.22	-24.43	-26.47	-28.55	-31.08	-34.43	-38.75	-43.78	-48.89	-53.12	-55.46	-55.1	-51.63	-45.24	-36.62	-26.77	-16.74	-7.36	0.89	7.8	13.27	17.22	19.5	20.08	19.11	17.07	14.61	12.37	10.82	10.1	10.02	10.18	10.12	9.48	8.04	5.78	2.82	-0.6	-4.31	-8.2	-12.3	-16.73	-21.64	-27.15	-33.3	-39.85	-46.3	-51.73	-54.99	-54.95	-50.85	-42.71	-31.35	-18.17	-4.65	8	19.1	28.4	35.76	41.01	43.94	44.47	42.8	39.47	35.26	30.88	26.86	23.39	20.43	17.81	15.33	12.84	10.21	7.32	4.12	0.64	-2.98	-6.51	-9.7	-12.42	-14.77
-7.36	0.89	7.8	13.27	17.22	19.5	20.08	19.11	17.07	14.61	12.37	10.82	10.1	10.02	10.18	10.12	9.48	8.04	5.78	2.82	-0.6	-4.31	-8.2	-12.3	-16.73	-21.64	-27.15	-33.3	-39.85	-46.3	-51.73	-54.99	-54.95	-50.85	-42.71	-31.35	-18.17	-4.65	8	19.1	28.4	35.76	41.01	43.94	44.47	42.8	39.47	35.26	30.88	26.86	23.39	20.43	17.81	15.33	12.84	10.21	7.32	4.12	0.64	-2.98	-6.51	-9.7	-12.42	-14.77	-17.11	-19.94	-23.73	-28.51	-33.79	-38.44	-41.04	-40.33	-35.58	-26.97	-15.52	-2.68	10.07	21.62	31.31	38.91	44.33	47.51	48.47	47.34	44.56	40.79	36.79	33.21	30.4	28.35	26.86	25.63	24.47	23.26	21.94	20.34	18.27	15.49	11.85	7.34	2.1	-3.63	-9.59	-15.63	-21.72	-28.01	-34.82	-42.52	-51.34	-61.01	-70.68	-78.9	-84.02	-84.7	-80.41	-71.57	-59.46	-45.69	-31.76	-18.84	-7.63	1.4	7.96	11.96	13.57	13.29	11.95	10.55
-17.11	-19.94	-23.73	-28.51	-33.79	-38.44	-41.04	-40.33	-35.58	-26.97	-15.52	-2.68	10.07	21.62	31.31	38.91	44.33	47.51	48.47	47.34	44.56	40.79	36.79	33.21	30.4	28.35	26.86	25.63	24.47	23.26	21.94	20.34	18.27	15.49	11.85	7.34	2.1	-3.63	-9.59	-15.63	-21.72	-28.01	-34.82	-42.52	-51.34	-61.01	-70.68	-78.9	-84.02	-84.7	-80.41	-71.57	-59.46	-45.69	-31.76	-18.84	-7.63	1.4	7.96	11.96	13.57	13.29	11.95	10.55	10.09	11.37	14.89	20.8	28.86	38.5	48.91	59.24	68.72	76.79	83.12	87.53	89.9	90.13	88.23	84.39	79.04	72.83	66.43	60.31	54.64	49.3	44.03	38.64	33.12	27.7	22.63	18.09	14.01	10.13	6.1	1.63	-3.43	-8.98	-14.8	-20.59	-26.07	-31.14	-35.82	-40.35	-45.06	-50.42	-56.78	-64.27	-72.43	-80.14	-85.72	-87.32	-83.63	-74.32	-60.26	-43.22	-25.22	-7.96	7.59	21.06	32.41	41.54	48.25	52.36	53.96	53.52	51.87	49.97
10.09	11.37	14.89	20.8	28.86	38.5	48.91	59.24	68.72	76.79	83.12	87.53	89.9	90.13	88.23	84.39	79.04	72.83	66.43	60.31	54.64	49.3	44.03	38.64	33.12	27.7	22.63	18.09	14.01	10.13	6.1	1.63	-3.43	-8.98	-14.8	-20.59	-26.07	-31.14	-35.82	-40.35	-45.06	-50.42	-56.78	-64.27	-72.43	-80.14	-85.72	-87.32	-83.63	-74.32	-60.26	-43.22	-25.22	-7.96	7.59	21.06	32.41	41.54	48.25	52.36	53.96	53.52	51.87	49.97	48.54	47.97	48.19	48.87	49.56	49.89	49.67	48.93	47.77	46.22	44.25	41.72	38.57	34.92	31.07	27.42	24.24	21.55	19.08	16.41	13.22	9.45	5.38	1.46	-1.87	-4.38	-6.22	-7.74	-9.41	-11.53	-14.2	-17.27	-20.49	-23.58	-26.41	-29	-31.47	-34	-36.8	-40.16	-44.43	-49.86	-56.36	-63.28	-69.33	-72.83	-72.26	-66.79	-56.64	-42.94	-27.35	-11.55	3.21	16.16	26.91	35.25	41.11	44.51	45.7	45.1	43.29	40.86	38.29	35.96
48.54	47.97	48.19	48.87	49.56	49.89	49.67	48.93	47.77	46.22	44.25	41.72	38.57	34.92	31.07	27.42	24.24	21.55	19.08	16.41	13.22	9.45	5.38	1.46	-1.87	-4.38	-6.22	-7.74	-9.41	-11.53	-14.2	-17.27	-20.49	-23.58	-26.41	-29	-31.47	-34	-36.8	-40.16	-44.43	-49.86	-56.36	-63.28	-69.33	-72.83	-72.26	-66.79	-56.64	-42.94	-27.35	-11.55	3.21	16.16	26.91	35.25	41.11	44.51	45.7	45.1	43.29	40.86	38.29	35.96	34.08	32.77	32.07	31.93	32.23	32.78	33.34	33.65	33.49	32.67	31.08	28.72	25.76	22.5	19.34	16.65	14.61	13.07	11.63	9.78	7.21	3.96	0.4	-2.94	-5.73	-7.94	-9.9	-12	-14.51	-17.44	-20.59	-23.73	-26.75	-29.65	-32.53	-35.46	-38.5	-41.75	-45.41	-49.64	-54.42	-59.29	-63.3	-65.21	-63.79	-58.31	-48.79	-36.03	-21.4	-6.45	7.44	19.39	28.95	36.03	40.76	43.32	43.91	42.85	40.59	37.7	34.84	32.54	31.1	30.51
34.08	32.77	32.07	31.93	32.23	32.78	33.34	33.65	33.49	32.67	31.08	28.72	25.76	22.5	19.34	16.65	14.61	13.07	11.63	9.78	7.21	3.96	0.4	-2.94	-5.73	-7.94	-9.9	-12	-14.51	-17.44	-20.59	-23.73	-26.75	-29.65	-32.53	-35.46	-38.5	-41.75	-45.41	-49.64	-54.42	-59.29	-63.3	-65.21	-63.79	-58.31	-48.79	-36.03	-21.4	-6.45	7.44	19.39	28.95	36.03	40.76	43.32	43.91	42.85	40.59	37.7	34.84	32.54	31.1	30.51	30.53	30.81	31.01	30.96	30.63	30.06	29.27	28.18	26.61	24.44	21.71	18.7	15.87	13.65	12.18	11.25	10.33	8.85	6.52	3.4	-0.1	-3.5	-6.46	-8.9	-10.94	-12.83	-14.75	-16.89	-19.33	-22.08	-25.03	-27.95	-30.63	-32.95	-35.07	-37.44	-40.63	-45	-50.43	-56.13	-60.84	-63.13	-61.88	-56.66	-47.71	-35.94	-22.57	-8.91	3.89	14.96	23.72	29.89	33.46	34.65	33.9	31.78	28.89	25.82	23.11	21.14	20.2	20.3	21.22	22.53
30.53	30.81	31.01	30.96	30.63	30.06	29.27	28.18	26.61	24.44	21.71	18.7	15.87	13.65	12.18	11.25	10.33	8.85	6.52	3.4	-0.1	-3.5	-6.46	-8.9	-10.94	-12.83	-14.75	-16.89	-19.33	-22.08	-25.03	-27.95	-30.63	-32.95	-35.07	-37.44	-40.63	-45	-50.43	-56.13	-60.84	-63.13	-61.88	-56.66	-47.71	-35.94	-22.57	-8.91	3.89	14.96	23.72	29.89	33.46	34.65	33.9	31.78	28.89	25.82	23.11	21.14	20.2	20.3	21.22	22.53	23.7	24.31	24.19	23.42	22.26	20.95	19.65	18.33	16.86	15.11	13.05	10.72	8.22	5.64	3.06	0.54	-1.86	-4.13	-6.3	-8.5	-10.85	-13.46	-16.27	-19.17	-21.97	-24.54	-26.87	-28.98	-30.97	-32.92	-34.99	-37.4	-40.46	-44.38	-49.06	-53.82	-57.46	-58.54	-55.9	-49.08	-38.54	-25.51	-11.57	1.84	13.68	23.4	30.84	36.02	39.04	40.04	39.31	37.33	34.69	32.03	29.89	28.62	28.29	28.77	29.74	30.78	31.5	31.59	30.95	29.6
23.7	24.31	24.19	23.42	22.26	20.95	19.65	18.33	16.86	15.11	13.05	10.72	8.22	5.64	3.06	0.54	-1.86	-4.13	-6.3	-8.5	-10.85	-13.46	-16.27	-19.17	-21.97	-24.54	-26.87	-28.98	-30.97	-32.92	-34.99	-37.4	-40.46	-44.38	-49.06	-53.82	-57.46	-58.54	-55.9	-49.08	-38.54	-25.51	-11.57	1.84	13.68	23.4	30.84	36.02	39.04	40.04	39.31	37.33	34.69	32.03	29.89	28.62	28.29	28.77	29.74	30.78	31.5	31.59	30.95	29.6	27.71	25.49	23.07	20.56	17.99	15.46	13.05	10.88	8.93	7.02	4.9	2.39	-0.5	-3.49	-6.23	-8.43	-10.11	-11.53	-13.12	-15.21	-17.81	-20.72	-23.54	-26.01	-28.07	-29.92	-31.96	-34.55	-37.98	-42.31	-47.4	-52.84	-57.9	-61.61	-62.89	-60.81	-54.83	-45.12	-32.52	-18.39	-4.29	8.41	18.75	26.31	31.1	33.48	33.96	33.11	31.5	29.62	27.82	26.4	25.53	25.28	25.62	26.4	27.4	28.41	29.26	29.84	30.09	29.96	29.34	28.1
27.71	25.49	23.07	20.56	17.99	15.46	13.05	10.88	8.93	7.02	4.9	2.39	-0.5	-3.49	-6.23	-8.43	-10.11	-11.53	-13.12	-15.21	-17.81	-20.72	-23.54	-26.01	-28.07	-29.92	-31.96	-34.55	-37.98	-42.31	-47.4	-52.84	-57.9	-61.61	-62.89	-60.81	-54.83	-45.12	-32.52	-18.39	-4.29	8.41	18.75	26.31	31.1	33.48	33.96	33.11	31.5	29.62	27.82	26.4	25.53	25.28	25.62	26.4	27.4	28.41	29.26	29.84	30.09	29.96	29.34	28.1	26.15	23.52	20.42	17.21	14.28	11.88	10	8.42	6.7	4.54	1.87	-1.08	-3.89	-6.21	-7.98	-9.5	-11.26	-13.66	-16.76	-20.28	-23.71	-26.68	-29.04	-31.04	-33.04	-35.43	-38.54	-42.51	-47.35	-52.72	-57.95	-61.9	-63.29	-61.02	-54.65	-44.56	-31.87	-18.07	-4.57	7.55	17.63	25.26	30.25	32.61	32.61	30.88	28.27	25.69	23.84	23.06	23.28	24.17	25.28	26.29	27.07	27.65	28.13	28.55	28.83	28.74	28.04	26.58	24.42	21.8
26.15	23.52	20.42	17.21	14.28	11.88	10	8.42	6.7	4.54	1.87	-1.08	-3.89	-6.21	-7.98	-9.5	-11.26	-13.66	-16.76	-20.28	-23.71	-26.68	-29.04	-31.04	-33.04	-35.43	-38.54	-42.51	-47.35	-52.72	-57.95	-61.9	-63.29	-61.02	-54.65	-44.56	-31.87	-18.07	-4.57	7.55	17.63	25.26	30.25	32.61	32.61	30.88	28.27	25.69	23.84	23.06	23.28	24.17	25.28	26.29	27.07	27.65	28.13	28.55	28.83	28.74	28.04	26.58	24.42	21.8	19.03	16.42	14.09	12.03	10.07	8.05	5.84	3.39	0.8	-1.82	-4.33	-6.67	-8.88	-11.05	-13.3	-15.71	-18.29	-20.96	-23.64	-26.25	-28.84	-31.55	-34.62	-38.3	-42.82	-48.16	-53.89	-59.09	-62.46	-62.63	-58.62	-50.26	-38.31	-24.22	-9.74	3.62	14.87	23.56	29.68	33.37	34.84	34.37	32.42	29.62	26.69	24.32	22.91	22.56	23.03	23.95	24.97	25.84	26.48	26.85	26.99	26.86	26.39	25.48	23.98	21.77	18.77	14.98	10.57	5.86
19.03	16.42	14.09	12.03	10.07	8.05	5.84	3.39	0.8	-1.82	-4.33	-6.67	-8.88	-11.05	-13.3	-15.71	-18.29	-20.96	-23.64	-26.25	-28.84	-31.55	-34.62	-38.3	-42.82	-48.16	-53.89	-59.09	-62.46	-62.63	-58.62	-50.26	-38.31	-24.22	-9.74	3.62	14.87	23.56	29.68	33.37	34.84	34.37	32.42	29.62	26.69	24.32	22.91	22.56	23.03	23.95	24.97	25.84	26.48	26.85	26.99	26.86	26.39	25.48	23.98	21.77	18.77	14.98	10.57	5.86	1.24	-2.9	-6.36	-9.15	-11.53	-13.86	-16.47	-19.45	-22.7	-25.96	-28.97	-31.65	-34.11	-36.62	-39.53	-43.11	-47.5	-52.69	-58.36	-63.84	-68.05	-69.77	-67.82	-61.52	-51.01	-37.21	-21.59	-5.75	9	21.76	32.09	39.78	44.75	47.05	46.9	44.81	41.58	38.05	34.98	32.83	31.69	31.34	31.42	31.52	31.38	30.9	30.12	29.06	27.7	25.88	23.44	20.28	16.52	12.49	8.64	5.4	2.93	1.07	-0.6	-2.58	-5.26	-8.69	-12.6	-16.49
1.24	-2.9	-6.36	-9.15	-11.53	-13.86	-16.47	-19.45	-22.7	-25.96	-28.97	-31.65	-34.11	-36.62	-39.53	-43.11	-47.5	-52.69	-58.36	-63.84	-68.05	-69.77	-67.82	-61.52	-51.01	-37.21	-21.59	-5.75	9	21.76	32.09	39.78	44.75	47.05	46.9	44.81	41.58	38.05	34.98	32.83	31.69	31.34	31.42	31.52	31.38	30.9	30.12	29.06	27.7	25.88	23.44	20.28	16.52	12.49	8.64	5.4	2.93	1.07	-0.6	-2.58	-5.26	-8.69	-12.6	-16.49	-19.88	-22.54	-24.58	-26.46	-28.78	-32.08	-36.69	-42.6	-49.52	-56.77	-63.35	-67.88	-68.89	-65.24	-56.54	-43.44	-27.52	-10.82	4.76	17.94	28.19	35.53	40.24	42.64	43.04	41.79	39.41	36.57	33.9	31.92	30.87	30.72	31.26	32.11	32.93	33.44	33.51	33.2	32.63	31.95	31.17	30.15	28.64	26.42	23.42	19.78	15.83	11.91	8.2	4.6	0.77	-3.65	-8.85	-14.6	-20.37	-25.49	-29.49	-32.3	-34.27	-36.03	-38.19	-41.17	-45.17	-50.26
-19.88	-22.54	-24.58	-26.46	-28.78	-32.08	-36.69	-42.6	-49.52	-56.77	-63.35	-67.88	-68.89	-65.24	-56.54	-43.44	-27.52	-10.82	4.76	17.94	28.19	35.53	40.24	42.64	43.04	41.79	39.41	36.57	33.9	31.92	30.87	30.72	31.26	32.11	32.93	33.44	33.51	33.2	32.63	31.95	31.17	30.15	28.64	26.42	23.42	19.78	15.83	11.91	8.2	4.6	0.77	-3.65	-8.85	-14.6	-20.37	-25.49	-29.49	-32.3	-34.27	-36.03	-38.19	-41.17	-45.17	-50.26	-56.33	-63.01	-69.46	-74.38	-76.19	-73.59	-66.04	-54	-38.84	-22.32	-6.1	8.65	21.33	31.68	39.65	45.28	48.65	50	49.76	48.45	46.66	44.89	43.53	42.8	42.71	43.11	43.69	44.16	44.23	43.8	42.86	41.47	39.68	37.47	34.8	31.57	27.83	23.79	19.77	16.07	12.85	10.04	7.38	4.57	1.42	-2.07	-5.77	-9.54	-13.27	-16.96	-20.65	-24.28	-27.76	-30.95	-33.79	-36.41	-39.13	-42.45	-46.72	-51.93	-57.43	-61.93	-63.77	-61.47
-56.33	-63.01	-69.46	-74.38	-76.19	-73.59	-66.04	-54	-38.84	-22.32	-6.1	8.65	21.33	31.68	39.65	45.28	48.65	50	49.76	48.45	46.66	44.89	43.53	42.8	42.71	43.11	43.69	44.16	44.23	43.8	42.86	41.47	39.68	37.47	34.8	31.57	27.83	23.79	19.77	16.07	12.85	10.04	7.38	4.57	1.42	-2.07	-5.77	-9.54	-13.27	-16.96	-20.65	-24.28	-27.76	-30.95	-33.79	-36.41	-39.13	-42.45	-46.72	-51.93	-57.43	-61.93	-63.77	-61.47	-54.24	-42.42	-27.45	-11.42	3.58	15.98	25.05	30.84	33.89	34.81	34.14	32.26	29.53	26.38	23.39	21.26	20.54	21.48	23.83	26.99	30.21	32.89	34.75	35.79	36.13	35.79	34.67	32.61	29.58	25.74	21.4	16.92	12.56	8.41	4.48	0.78	-2.69	-5.93	-9.05	-12.25	-15.73	-19.5	-23.37	-26.97	-29.9	-31.97	-33.32	-34.3	-35.45	-37.24	-40.04	-44.01	-49.05	-54.64	-59.8	-63.16	-63.22	-58.88	-49.83	-36.77	-21.2	-5.01	10.04	22.71
-54.24	-42.42	-27.45	-11.42	3.58	15.98	25.05	30.84	33.89	34.81	34.14	32.26	29.53	26.38	23.39	21.26	20.54	21.48	23.83	26.99	30.21	32.89	34.75	35.79	36.13	35.79	34.67	32.61	29.58	25.74	21.4	16.92	12.56	8.41	4.48	0.78	-2.69	-5.93	-9.05	-12.25	-15.73	-19.5	-23.37	-26.97	-29.9	-31.97	-33.32	-34.3	-35.45	-37.24	-40.04	-44.01	-49.05	-54.64	-59.8	-63.16	-63.22	-58.88	-49.83	-36.77	-21.2	-5.01	10.04	22.71	32.37	38.88	42.43	43.36	42.19	39.58	36.34	33.29	31.15	30.3	30.69	31.88	33.25	34.24	34.59	34.3	33.57	32.6	31.43	29.99	28.15	25.86	23.18	20.18	16.93	13.48	9.87	6.1	2.18	-1.92	-6.3	-10.98	-15.83	-20.56	-24.79	-28.25	-30.93	-33.13	-35.34	-38.06	-41.69	-46.34	-51.8	-57.41	-62.05	-64.26	-62.65	-56.34	-45.37	-30.78	-14.38	1.85	16.27	27.92	36.47	42.06	44.94	45.42	43.81	40.59	36.45	32.3	28.97	27.02
32.37	38.88	42.43	43.36	42.19	39.58	36.34	33.29	31.15	30.3	30.69	31.88	33.25	34.24	34.59	34.3	33.57	32.6	31.43	29.99	28.15	25.86	23.18	20.18	16.93	13.48	9.87	6.1	2.18	-1.92	-6.3	-10.98	-15.83	-20.56	-24.79	-28.25	-30.93	-33.13	-35.34	-38.06	-41.69	-46.34	-51.8	-57.41	-62.05	-64.26	-62.65	-56.34	-45.37	-30.78	-14.38	1.85	16.27	27.92	36.47	42.06	44.94	45.42	43.81	40.59	36.45	32.3	28.97	27.02	26.55	27.12	28.05	28.64	28.51	27.7	26.5	25.17	23.77	22.09	19.82	16.85	13.35	9.69	6.21	3.02	-0.09	-3.4	-7.09	-11.07	-15.05	-18.72	-22.05	-25.32	-29.06	-33.8	-39.78	-46.72	-53.72	-59.44	-62.4	-61.42	-56	-46.45	-33.9	-19.89	-5.98	6.59	17.01	24.94	30.28	33.16	33.81	32.59	30.08	26.97	24.05	21.98	21.16	21.57	22.75	24.02	24.73	24.56	23.59	22.19	20.73	19.32	17.74	15.54	12.37	8.18	3.29	-1.82
26.55	27.12	28.05	28.64	28.51	27.7	26.5	25.17	23.77	22.09	19.82	16.85	13.35	9.69	6.21	3.02	-0.09	-3.4	-7.09	-11.07	-15.05	-18.72	-22.05	-25.32	-29.06	-33.8	-39.78	-46.72	-53.72	-59.44	-62.4	-61.42	-56	-46.45	-33.9	-19.89	-5.98	6.59	17.01	24.94	30.28	33.16	33.81	32.59	30.08	26.97	24.05	21.98	21.16	21.57	22.75	24.02	24.73	24.56	23.59	22.19	20.73	19.32	17.74	15.54	12.37	8.18	3.29	-1.82	-6.69	-11.11	-15.22	-19.28	-23.59	-28.36	-33.69	-39.64	-46.11	-52.77	-58.9	-63.35	-64.79	-62.08	-54.78	-43.33	-29.06	-13.72	1.01	13.91	24.36	32.17	37.37	40.03	40.29	38.48	35.2	31.25	27.49	24.61	22.9	22.26	22.25	22.31	22.02	21.23	20.11	18.97	18.04	17.2	15.94	13.57	9.56	3.87	-2.86	-9.63	-15.43	-19.7	-22.54	-24.54	-26.5	-29.14	-32.89	-37.9	-43.96	-50.46	-56.33	-60.12	-60.29	-55.75	-46.32	-32.84	-17.03	-0.88
-6.69	-11.11	-15.22	-19.28	-23.59	-28.36	-33.69	-39.64	-46.11	-52.77	-58.9	-63.35	-64.79	-62.08	-54.78	-43.33	-29.06	-13.72	1.01	13.91	24.36	32.17	37.37	40.03	40.29	38.48	35.2	31.25	27.49	24.61	22.9	22.26	22.25	22.31	22.02	21.23	20.11	18.97	18.04	17.2	15.94	13.57	9.56	3.87	-2.86	-9.63	-15.43	-19.7	-22.54	-24.54	-26.5	-29.14	-32.89	-37.9	-43.96	-50.46	-56.33	-60.12	-60.29	-55.75	-46.32	-32.84	-17.03	-0.88	13.89	26.22	35.69	42.26	45.99	46.95	45.35	41.68	36.85	31.95	27.99	25.49	24.39	24.17	24.13	23.81	23.09	22.17	21.34	20.69	20.06	19.06	17.27	14.37	10.33	5.33	-0.22	-5.81	-10.96	-15.4	-19.15	-22.52	-26.1	-30.5	-36.22	-43.41	-51.66	-59.94	-66.69	-70.13	-68.75	-61.81	-49.64	-33.62	-15.74	1.92	17.69	30.62	40.33	46.86	50.39	51.23	49.76	46.6	42.54	38.46	35.11	32.96	32.09	32.21	32.83	33.42	33.56	33.04
13.89	26.22	35.69	42.26	45.99	46.95	45.35	41.68	36.85	31.95	27.99	25.49	24.39	24.17	24.13	23.81	23.09	22.17	21.34	20.69	20.06	19.06	17.27	14.37	10.33	5.33	-0.22	-5.81	-10.96	-15.4	-19.15	-22.52	-26.1	-30.5	-36.22	-43.41	-51.66	-59.94	-66.69	-70.13	-68.75	-61.81	-49.64	-33.62	-15.74	1.92	17.69	30.62	40.33	46.86	50.39	51.23	49.76	46.6	42.54	38.46	35.11	32.96	32.09	32.21	32.83	33.42	33.56	33.04	31.82	30.05	27.88	25.42	22.72	19.74	16.36	12.44	7.85	2.59	-3.15	-9.07	-14.79	-20	-24.6	-28.7	-32.62	-36.77	-41.57	-47.31	-54.03	-61.33	-68.18	-73.07	-74.22	-70.19	-60.39	-45.43	-27.02	-7.52	10.78	26.18	37.8	45.51	49.63	50.66	49.18	45.9	41.72	37.62	34.45	32.72	32.41	33.01	33.78	34.15	33.87	33.1	32.19	31.37	30.54	29.28	27.07	23.53	18.68	12.84	6.58	0.44	-5.2	-10.23	-14.74	-18.99	-23.23	-27.67
31.82	30.05	27.88	25.42	22.72	19.74	16.36	12.44	7.85	2.59	-3.15	-9.07	-14.79	-20	-24.6	-28.7	-32.62	-36.77	-41.57	-47.31	-54.03	-61.33	-68.18	-73.07	-74.22	-70.19	-60.39	-45.43	-27.02	-7.52	10.78	26.18	37.8	45.51	49.63	50.66	49.18	45.9	41.72	37.62	34.45	32.72	32.41	33.01	33.78	34.15	33.87	33.1	32.19	31.37	30.54	29.28	27.07	23.53	18.68	12.84	6.58	0.44	-5.2	-10.23	-14.74	-18.99	-23.23	-27.67	-32.38	-37.25	-42.1	-46.73	-51.08	-55.3	-59.73	-64.89	-71.28	-79.19	-88.41	-98	-106.31	-111.36	-111.36	-105.37	-93.68	-77.72	-59.51	-41.05	-23.74	-8.24	5.37	17.24	27.54	36.33	43.76	50.07	55.75	61.27	67.01	73.04	79.11	84.63	88.9	91.36	91.76	90.31	87.48	83.83	79.78	75.47	70.84	65.74	60.12	54.05	47.68	41.25	34.94	28.96	23.41	18.35	13.74	9.35	4.91	0.18	-4.93	-10.25	-15.44	-20.21	-24.35	-27.97	-31.41	-35.25
-32.38	-37.25	-42.1	-46.73	-51.08	-55.3	-59.73	-64.89	-71.28	-79.19	-88.41	-98	-106.31	-111.36	-111.36	-105.37	-93.68	-77.72	-59.51	-41.05	-23.74	-8.24	5.37	17.24	27.54	36.33	43.76	50.07	55.75	61.27	67.01	73.04	79.11	84.63	88.9	91.36	91.76	90.31	87.48	83.83	79.78	75.47	70.84	65.74	60.12	54.05	47.68	41.25	34.94	28.96	23.41	18.35	13.74	9.35	4.91	0.18	-4.93	-10.25	-15.44	-20.21	-24.35	-27.97	-31.41	-35.25	-40.13	-46.51	-54.46	-63.38	-72.01	-78.51	-80.95	-77.85	-68.67	-54.08	-35.79	-16.12	2.66	18.83	31.45	40.32	45.67	47.94	47.61	45.24	41.59	37.56	34.08	31.82	31.01	31.39	32.45	33.62	34.58	35.23	35.64	35.82	35.71	35.1	33.79	31.64	28.66	25.05	21.04	16.85	12.68	8.66	4.86	1.35	-1.83	-4.71	-7.43	-10.28	-13.58	-17.49	-21.88	-26.35	-30.39	-33.69	-36.25	-38.45	-40.83	-43.91	-48.03	-53.31	-59.56	-66.14	-71.84	-75.04
-40.13	-46.51	-54.46	-63.38	-72.01	-78.51	-80.95	-77.85	-68.67	-54.08	-35.79	-16.12	2.66	18.83	31.45	40.32	45.67	47.94	47.61	45.24	41.59	37.56	34.08	31.82	31.01	31.39	32.45	33.62	34.58	35.23	35.64	35.82	35.71	35.1	33.79	31.64	28.66	25.05	21.04	16.85	12.68	8.66	4.86	1.35	-1.83	-4.71	-7.43	-10.28	-13.58	-17.49	-21.88	-26.35	-30.39	-33.69	-36.25	-38.45	-40.83	-43.91	-48.03	-53.31	-59.56	-66.14	-71.84	-75.04	-74.01	-67.56	-55.58	-39.25	-20.73	-2.42	13.71	26.54	35.83	41.83	44.98	45.66	44.26	41.32	37.57	33.84	30.82	28.95	28.25	28.46	29.17	30.05	30.86	31.53	32.04	32.34	32.3	31.73	30.45	28.34	25.42	21.8	17.7	13.37	9.06	4.93	1.1	-2.43	-5.74	-8.94	-12.14	-15.43	-18.85	-22.43	-26.2	-30.09	-33.93	-37.49	-40.55	-43.06	-45.32	-47.88	-51.34	-56.02	-61.6	-67.05	-70.8	-71.19	-67.04	-58.01	-44.72	-28.55	-11.27	5.39
-74.01	-67.56	-55.58	-39.25	-20.73	-2.42	13.71	26.54	35.83	41.83	44.98	45.66	44.26	41.32	37.57	33.84	30.82	28.95	28.25	28.46	29.17	30.05	30.86	31.53	32.04	32.34	32.3	31.73	30.45	28.34	25.42	21.8	17.7	13.37	9.06	4.93	1.1	-2.43	-5.74	-8.94	-12.14	-15.43	-18.85	-22.43	-26.2	-30.09	-33.93	-37.49	-40.55	-43.06	-45.32	-47.88	-51.34	-56.02	-61.6	-67.05	-70.8	-71.19	-67.04	-58.01	-44.72	-28.55	-11.27	5.39	20.03	31.7	39.98	44.86	46.63	45.85	43.2	39.47	35.42	31.72	28.83	27	26.24	26.39	27.23	28.49	30	31.6	33.14	34.43	35.23	35.29	34.33	32.24	28.99	24.8	19.98	14.91	9.93	5.26	0.99	-2.95	-6.66	-10.29	-13.93	-17.67	-21.5	-25.35	-29.04	-32.37	-35.21	-37.61	-39.86	-42.41	-45.79	-50.34	-56.12	-62.66	-69.05	-73.92	-75.8	-73.43	-66.21	-54.36	-39	-21.8	-4.64	10.85	23.59	33.04	39.15	42.19	42.58	40.86
20.03	31.7	39.98	44.86	46.63	45.85	43.2	39.47	35.42	31.72	28.83	27	26.24	26.39	27.23	28.49	30	31.6	33.14	34.43	35.23	35.29	34.33	32.24	28.99	24.8	19.98	14.91	9.93	5.26	0.99	-2.95	-6.66	-10.29	-13.93	-17.67	-21.5	-25.35	-29.04	-32.37	-35.21	-37.61	-39.86	-42.41	-45.79	-50.34	-56.12	-62.66	-69.05	-73.92	-75.8	-73.43	-66.21	-54.36	-39	-21.8	-4.64	10.85	23.59	33.04	39.15	42.19	42.58	40.86	37.67	33.78	30	27.06	25.38	25.01	25.63	26.67	27.58	27.99	27.84	27.24	26.29	25	23.18	20.63	17.26	13.25	8.98	4.92	1.39	-1.57	-4.22	-6.99	-10.24	-14.12	-18.49	-23	-27.29	-31.08	-34.33	-37.22	-40.1	-43.48	-47.86	-53.53	-60.28	-67.23	-72.9	-75.48	-73.5	-66.23	-54.07	-38.4	-21.1	-4.06	11.28	24.05	33.84	40.53	44.2	45.02	43.4	39.95	35.48	30.8	26.64	23.45	21.39	20.36	20.06	20.12	20.16	19.93
37.67	33.78	30	27.06	25.38	25.01	25.63	26.67	27.58	27.99	27.84	27.24	26.29	25	23.18	20.63	17.26	13.25	8.98	4.92	1.39	-1.57	-4.22	-6.99	-10.24	-14.12	-18.49	-23	-27.29	-31.08	-34.33	-37.22	-40.1	-43.48	-47.86	-53.53	-60.28	-67.23	-72.9	-75.48	-73.5	-66.23	-54.07	-38.4	-21.1	-4.06	11.28	24.05	33.84	40.53	44.2	45.02	43.4	39.95	35.48	30.8	26.64	23.45	21.39	20.36	20.06	20.12	20.16	19.93	19.28	18.23	16.85	15.19	13.17	10.6	7.24	3.02	-1.97	-7.36	-12.71	-17.62	-21.95	-25.77	-29.35	-32.95	-36.87	-41.42	-46.87	-53.32	-60.44	-67.24	-72.1	-73.2	-69.11	-59.39	-44.8	-27.14	-8.58	8.92	24	36.05	44.86	50.46	52.96	52.64	50.02	45.92	41.31	37.05	33.68	31.32	29.8	28.79	28.05	27.47	27	26.6	26.14	25.44	24.3	22.59	20.23	17.2	13.49	9.08	4.02	-1.54	-7.36	-13.17	-18.71	-23.9	-28.76	-33.42
19.28	18.23	16.85	15.19	13.17	10.6	7.24	3.02	-1.97	-7.36	-12.71	-17.62	-21.95	-25.77	-29.35	-32.95	-36.87	-41.42	-46.87	-53.32	-60.44	-67.24	-72.1	-73.2	-69.11	-59.39	-44.8	-27.14	-8.58	8.92	24	36.05	44.86	50.46	52.96	52.64	50.02	45.92	41.31	37.05	33.68	31.32	29.8	28.79	28.05	27.47	27	26.6	26.14	25.44	24.3	22.59	20.23	17.2	13.49	9.08	4.02	-1.54	-7.36	-13.17	-18.71	-23.9	-28.76	-33.42	-38.03	-42.75	-47.74	-53.15	-58.99	-64.85	-69.78	-72.3	-70.9	-64.52	-53.16	-37.98	-20.96	-4.29	10.35	22.07	30.73	36.59	40.04	41.46	41.24	39.98	38.41	37.28	37.06	37.77	39.05	40.31	41.03	40.95	40.14	38.88	37.44	35.99	34.51	32.77	30.47	27.39	23.5	19.07	14.57	10.49	7.12	4.36	1.78	-1.19	-4.94	-9.46	-14.31	-18.88	-22.7	-25.62	-28.02	-30.56	-34.02	-39	-45.69	-53.64	-61.7	-68.13	-70.94	-68.48	-60.02	-46.03
-38.03	-42.75	-47.74	-53.15	-58.99	-64.85	-69.78	-72.3	-70.9	-64.52	-53.16	-37.98	-20.96	-4.29	10.35	22.07	30.73	36.59	40.04	41.46	41.24	39.98	38.41	37.28	37.06	37.77	39.05	40.31	41.03	40.95	40.14	38.88	37.44	35.99	34.51	32.77	30.47	27.39	23.5	19.07	14.57	10.49	7.12	4.36	1.78	-1.19	-4.94	-9.46	-14.31	-18.88	-22.7	-25.62	-28.02	-30.56	-34.02	-39	-45.69	-53.64	-61.7	-68.13	-70.94	-68.48	-60.02	-46.03	-28.18	-8.83	9.68	25.6	38.04	46.9	52.48	55.15	55.25	53.06	49.03	43.87	38.51	33.93	30.82	29.37	29.21	29.62	29.77	29.13	27.55	25.24	22.52	19.51	16.08	11.92	6.8	0.75	-5.88	-12.54	-18.78	-24.29	-28.86	-32.19	-33.75	-32.94	-29.36	-23.23	-15.55	-7.82	-1.51	2.47	4.04	3.76	2.33	0.07	-3.22	-8.07	-14.93	-23.74	-33.79	-43.78	-52.06	-56.9	-56.82	-50.85	-38.82	-21.58	-0.96	20.54	40.31	56.19	66.9	72.07
-28.18	-8.83	9.68	25.6	38.04	46.9	52.48	55.15	55.25	53.06	49.03	43.87	38.51	33.93	30.82	29.37	29.21	29.62	29.77	29.13	27.55	25.24	22.52	19.51	16.08	11.92	6.8	0.75	-5.88	-12.54	-18.78	-24.29	-28.86	-32.19	-33.75	-32.94	-29.36	-23.23	-15.55	-7.82	-1.51	2.47	4.04	3.76	2.33	0.07	-3.22	-8.07	-14.93	-23.74	-33.79	-43.78	-52.06	-56.9	-56.82	-50.85	-38.82	-21.58	-0.96	20.54	40.31	56.19	66.9	72.07	72.15	68.03	60.83	51.77	42.16	33.29	26.29	21.91	20.29	20.93	22.8	24.77	25.99	26.06	25.08	23.36	21.12	18.41	15.19	11.62	8.27	6.07	6.07	8.84	14.13	20.78	27.01	31.06	31.73	28.67	22.41	13.92	4.32	-5.49	-14.89	-23.5	-31.18	-37.9	-43.83	-49.25	-54.37	-59.13	-63	-64.96	-63.79	-58.52	-48.87	-35.47	-19.83	-3.87	10.53	22.08	30.24	35.19	37.51	37.89	36.86	34.89	32.36	29.72	27.42	25.84	25.02	24.74
72.15	68.03	60.83	51.77	42.16	33.29	26.29	21.91	20.29	20.93	22.8	24.77	25.99	26.06	25.08	23.36	21.12	18.41	15.19	11.62	8.27	6.07	6.07	8.84	14.13	20.78	27.01	31.06	31.73	28.67	22.41	13.92	4.32	-5.49	-14.89	-23.5	-31.18	-37.9	-43.83	-49.25	-54.37	-59.13	-63	-64.96	-63.79	-58.52	-48.87	-35.47	-19.83	-3.87	10.53	22.08	30.24	35.19	37.51	37.89	36.86	34.89	32.36	29.72	27.42	25.84	25.02	24.74	24.57	24.16	23.38	22.36	21.29	20.2	18.83	16.81	13.83	9.89	5.31	0.57	-3.88	-7.86	-11.37	-14.58	-17.65	-20.7	-23.82	-27.04	-30.39	-33.81	-37.18	-40.35	-43.33	-46.34	-49.81	-54.11	-59.18	-64.3	-68.05	-68.76	-65.04	-56.36	-43.24	-27.13	-9.95	6.48	20.79	32.16	40.23	44.97	46.55	45.34	41.95	37.17	31.87	26.8	22.47	19.15	16.91	15.64	15.17	15.24	15.51	15.62	15.34	14.57	13.37	11.89	10.23	8.39	6.25	3.68
24.57	24.16	23.38	22.36	21.29	20.2	18.83	16.81	13.83	9.89	5.31	0.57	-3.88	-7.86	-11.37	-14.58	-17.65	-20.7	-23.82	-27.04	-30.39	-33.81	-37.18	-40.35	-43.33	-46.34	-49.81	-54.11	-59.18	-64.3	-68.05	-68.76	-65.04	-56.36	-43.24	-27.13	-9.95	6.48	20.79	32.16	40.23	44.97	46.55	45.34	41.95	37.17	31.87	26.8	22.47	19.15	16.91	15.64	15.17	15.24	15.51	15.62	15.34	14.57	13.37	11.89	10.23	8.39	6.25	3.68	0.64	-2.79	-6.43	-10.14	-13.77	-17.23	-20.44	-23.34	-25.98	-28.58	-31.5	-35.2	-39.83	-45.08	-50.02	-53.3	-53.47	-49.58	-41.42	-29.71	-15.82	-1.42	11.91	22.98	31.09	36.01	37.91	37.25	34.68	30.94	26.74	22.74	19.44	17.23	16.38	16.89	18.52	20.81	23.1	24.83	25.58	25.26	24.02	22.08	19.64	16.79	13.5	9.73	5.47	0.79	-4.19	-9.29	-14.28	-18.92	-22.97	-26.26	-28.87	-31.06	-33.36	-36.41	-40.74	-46.48	-53.16	-59.59
0.64	-2.79	-6.43	-10.14	-13.77	-17.23	-20.44	-23.34	-25.98	-28.58	-31.5	-35.2	-39.83	-45.08	-50.02	-53.3	-53.47	-49.58	-41.42	-29.71	-15.82	-1.42	11.91	22.98	31.09	36.01	37.91	37.25	34.68	30.94	26.74	22.74	19.44	17.23	16.38	16.89	18.52	20.81	23.1	24.83	25.58	25.26	24.02	22.08	19.64	16.79	13.5	9.73	5.47	0.79	-4.19	-9.29	-14.28	-18.92	-22.97	-26.26	-28.87	-31.06	-33.36	-36.41	-40.74	-46.48	-53.16	-59.59	-64.11	-65.01	-61.09	-52.05	-38.67	-22.5	-5.51	10.49	24.18	34.81	42.15	46.32	47.64	46.54	43.52	39.08	33.79	28.24	23.03	18.67	15.51	13.65	12.91	13	13.59	14.47	15.5	16.52	17.29	17.48	16.75	14.93	12.08	8.47	4.37	-0.02	-4.64	-9.46	-14.34	-19.02	-23.18	-26.61	-29.35	-31.72	-34.2	-37.3	-41.34	-46.28	-51.63	-56.36	-59.1	-58.42	-53.33	-43.62	-30.1	-14.41	1.46	15.72	27.19	35.44	40.58	43	43.13	41.37
-64.11	-65.01	-61.09	-52.05	-38.67	-22.5	-5.51	10.49	24.18	34.81	42.15	46.32	47.64	46.54	43.52	39.08	33.79	28.24	23.03	18.67	15.51	13.65	12.91	13	13.59	14.47	15.5	16.52	17.29	17.48	16.75	14.93	12.08	8.47	4.37	-0.02	-4.64	-9.46	-14.34	-19.02	-23.18	-26.61	-29.35	-31.72	-34.2	-37.3	-41.34	-46.28	-51.63	-56.36	-59.1	-58.42	-53.33	-43.62	-30.1	-14.41	1.46	15.72	27.19	35.44	40.58	43	43.13	41.37	38.21	34.31	30.47	27.44	25.71	25.32	25.85	26.73	27.41	27.6	27.26	26.47	25.29	23.67	21.47	18.6	15.09	11.16	7.09	3.15	-0.56	-4.1	-7.62	-11.26	-15.02	-18.81	-22.39	-25.59	-28.35	-30.77	-33.15	-35.85	-39.27	-43.71	-49.2	-55.28	-60.95	-64.74	-65.07	-60.81	-51.66	-38.36	-22.49	-5.95	9.52	22.7	32.93	39.94	43.72	44.46	42.55	38.7	33.92	29.32	25.88	24.14	24.13	25.37	27.15	28.73	29.68	29.87	29.44	28.66
38.21	34.31	30.47	27.44	25.71	25.32	25.85	26.73	27.41	27.6	27.26	26.47	25.29	23.67	21.47	18.6	15.09	11.16	7.09	3.15	-0.56	-4.1	-7.62	-11.26	-15.02	-18.81	-22.39	-25.59	-28.35	-30.77	-33.15	-35.85	-39.27	-43.71	-49.2	-55.28	-60.95	-64.74	-65.07	-60.81	-51.66	-38.36	-22.49	-5.95	9.52	22.7	32.93	39.94	43.72	44.46	42.55	38.7	33.92	29.32	25.88	24.14	24.13	25.37	27.15	28.73	29.68	29.87	29.44	28.66	27.66	26.43	24.75	22.4	19.26	15.5	11.53	7.87	4.93	2.8	1.17	-0.54	-2.92	-6.3	-10.61	-15.36	-19.9	-23.67	-26.52	-28.67	-30.64	-33.04	-36.29	-40.6	-45.87	-51.58	-56.81	-60.26	-60.48	-56.27	-47.21	-33.91	-17.94	-1.4	13.73	26.07	35.05	40.72	43.47	43.72	41.93	38.65	34.62	30.67	27.57	25.8	25.44	26.21	27.57	28.99	30.05	30.55	30.5	30.02	29.29	28.32	27.03	25.18	22.58	19.17	15.13	10.87	6.85	3.38
27.66	26.43	24.75	22.4	19.26	15.5	11.53	7.87	4.93	2.8	1.17	-0.54	-2.92	-6.3	-10.61	-15.36	-19.9	-23.67	-26.52	-28.67	-30.64	-33.04	-36.29	-40.6	-45.87	-51.58	-56.81	-60.26	-60.48	-56.27	-47.21	-33.91	-17.94	-1.4	13.73	26.07	35.05	40.72	43.47	43.72	41.93	38.65	34.62	30.67	27.57	25.8	25.44	26.21	27.57	28.99	30.05	30.55	30.5	30.02	29.29	28.32	27.03	25.18	22.58	19.17	15.13	10.87	6.85	3.38	0.48	-2.09	-4.73	-7.74	-11.26	-15.13	-19.05	-22.66	-25.7	-28.13	-30.09	-31.88	-33.88	-36.49	-40.08	-44.79	-50.45	-56.33	-61.19	-63.51	-61.89	-55.58	-44.78	-30.58	-14.69	1.13	15.38	27.04	35.5	40.48	41.99	40.38	36.41	31.15	25.74	21.06	17.59	15.44	14.46	14.43	15.16	16.39	17.82	19.02	19.58	19.22	17.9	15.79	13.15	10.24	7.17	3.99	0.7	-2.67	-6.06	-9.45	-12.86	-16.36	-20	-23.76	-27.45	-30.84	-33.74	-36.23
0.48	-2.09	-4.73	-7.74	-11.26	-15.13	-19.05	-22.66	-25.7	-28.13	-30.09	-31.88	-33.88	-36.49	-40.08	-44.79	-50.45	-56.33	-61.19	-63.51	-61.89	-55.58	-44.78	-30.58	-14.69	1.13	15.38	27.04	35.5	40.48	41.99	40.38	36.41	31.15	25.74	21.06	17.59	15.44	14.46	14.43	15.16	16.39	17.82	19.02	19.58	19.22	17.9	15.79	13.15	10.24	7.17	3.99	0.7	-2.67	-6.06	-9.45	-12.86	-16.36	-20	-23.76	-27.45	-30.84	-33.74	-36.23	-38.68	-41.7	-45.9	-51.39	-57.59	-63.16	-66.37	-65.64	-60.02	-49.62	-35.46	-19.21	-2.66	12.6	25.44	35.22	41.74	45.09	45.65	44	40.89	37.17	33.6	30.76	28.94	28.09	27.93	28.12	28.35	28.49	28.51	28.39	28.05	27.27	25.79	23.45	20.27	16.51	12.5	8.55	4.79	1.18	-2.52	-6.51	-10.82	-15.28	-19.58	-23.38	-26.56	-29.27	-31.92	-35.04	-39.16	-44.55	-51.08	-58.08	-64.29	-68.11	-67.93	-62.74	-52.49	-38.26	-21.88	-5.43
-38.68	-41.7	-45.9	-51.39	-57.59	-63.16	-66.37	-65.64	-60.02	-49.62	-35.46	-19.21	-2.66	12.6	25.44	35.22	41.74	45.09	45.65	44	40.89	37.17	33.6	30.76	28.94	28.09	27.93	28.12	28.35	28.49	28.51	28.39	28.05	27.27	25.79	23.45	20.27	16.51	12.5	8.55	4.79	1.18	-2.52	-6.51	-10.82	-15.28	-19.58	-23.38	-26.56	-29.27	-31.92	-35.04	-39.16	-44.55	-51.08	-58.08	-64.29	-68.11	-67.93	-62.74	-52.49	-38.26	-21.88	-5.43	9.39	21.62	30.95	37.46	41.35	42.77	41.97	39.5	36.21	33.08	30.87	29.88	29.87	30.28	30.55	30.37	29.76	28.98	28.29	27.83	27.51	27.07	26.19	24.59	22.12	18.83	15	11.01	7.23	3.82	0.67	-2.55	-6.27	-10.67	-15.67	-20.86	-25.73	-29.94	-33.45	-36.51	-39.63	-43.31	-47.97	-53.78	-60.45	-67.17	-72.52	-74.78	-72.39	-64.49	-51.35	-34.43	-15.89	1.98	17.44	29.56	38.17	43.53	46.03	46.06	44.06	40.71	36.89	33.59
9.39	21.62	30.95	37.46	41.35	42.77	41.97	39.5	36.21	33.08	30.87	29.88	29.87	30.28	30.55	30.37	29.76	28.98	28.29	27.83	27.51	27.07	26.19	24.59	22.12	18.83	15	11.01	7.23	3.82	0.67	-2.55	-6.27	-10.67	-15.67	-20.86	-25.73	-29.94	-33.45	-36.51	-39.63	-43.31	-47.97	-53.78	-60.45	-67.17	-72.52	-74.78	-72.39	-64.49	-51.35	-34.43	-15.89	1.98	17.44	29.56	38.17	43.53	46.03	46.06	44.06	40.71	36.89	33.59	31.6	31.24	32.26	33.92	35.33	35.86	35.3	33.96	32.39	31.03	30.07	29.31	28.4	27.06	25.19	22.87	20.29	17.57	14.74	11.77	8.57	5.09	1.24	-3.06	-7.88	-13.15	-18.62	-23.9	-28.62	-32.56	-35.77	-38.61	-41.58	-45.2	-49.8	-55.34	-61.27	-66.51	-69.65	-69.26	-64.37	-54.81	-41.35	-25.48	-9.01	6.41	19.61	30	37.42	41.95	43.74	43.1	40.5	36.67	32.6	29.24	27.29	26.89	27.64	28.8	29.65	29.83	29.43	28.83
31.6	31.24	32.26	33.92	35.33	35.86	35.3	33.96	32.39	31.03	30.07	29.31	28.4	27.06	25.19	22.87	20.29	17.57	14.74	11.77	8.57	5.09	1.24	-3.06	-7.88	-13.15	-18.62	-23.9	-28.62	-32.56	-35.77	-38.61	-41.58	-45.2	-49.8	-55.34	-61.27	-66.51	-69.65	-69.26	-64.37	-54.81	-41.35	-25.48	-9.01	6.41	19.61	30	37.42	41.95	43.74	43.1	40.5	36.67	32.6	29.24	27.29	26.89	27.64	28.8	29.65	29.83	29.43	28.83	28.37	28.11	27.79	26.92	25.06	22.04	18.03	13.47	8.92	4.87	1.6	-0.91	-2.94	-4.95	-7.38	-10.48	-14.19	-18.18	-22.01	-25.41	-28.32	-30.98	-33.76	-37.1	-41.34	-46.73	-53.2	-60.25	-66.8	-71.29	-72	-67.63	-57.79	-43.26	-25.76	-7.47	9.61	24.11	35.36	43.33	48.2	50.3	50	47.82	44.5	40.98	38.14	36.59	36.47	37.43	38.85	40.08	40.75	40.79	40.31	39.43	38.16	36.43	34.14	31.32	28.15	24.89	21.71	18.64
28.37	28.11	27.79	26.92	25.06	22.04	18.03	13.47	8.92	4.87	1.6	-0.91	-2.94	-4.95	-7.38	-10.48	-14.19	-18.18	-22.01	-25.41	-28.32	-30.98	-33.76	-37.1	-41.34	-46.73	-53.2	-60.25	-66.8	-71.29	-72	-67.63	-57.79	-43.26	-25.76	-7.47	9.61	24.11	35.36	43.33	48.2	50.3	50	47.82	44.5	40.98	38.14	36.59	36.47	37.43	38.85	40.08	40.75	40.79	40.31	39.43	38.16	36.43	34.14	31.32	28.15	24.89	21.71	18.64	15.59	12.46	9.26	6.03	2.82	-0.43	-3.89	-7.76	-12.09	-16.76	-21.46	-25.89	-29.86	-33.38	-36.61	-39.8	-43.22	-47.15	-51.91	-57.81	-64.91	-72.7	-79.96	-84.83	-85.39	-80.29	-69.31	-53.52	-34.87	-15.61	2.36	17.8	30.12	39.2	45.16	48.32	49.19	48.44	46.84	45.08	43.61	42.62	42.11	41.98	42.11	42.42	42.8	43.16	43.35	43.22	42.62	41.45	39.65	37.25	34.35	31.18	27.98	24.96	22.17	19.48	16.58	13.21	9.25	4.88
15.59	12.46	9.26	6.03	2.82	-0.43	-3.89	-7.76	-12.09	-16.76	-21.46	-25.89	-29.86	-33.38	-36.61	-39.8	-43.22	-47.15	-51.91	-57.81	-64.91	-72.7	-79.96	-84.83	-85.39	-80.29	-69.31	-53.52	-34.87	-15.61	2.36	17.8	30.12	39.2	45.16	48.32	49.19	48.44	46.84	45.08	43.61	42.62	42.11	41.98	42.11	42.42	42.8	43.16	43.35	43.22	42.62	41.45	39.65	37.25	34.35	31.18	27.98	24.96	22.17	19.48	16.58	13.21	9.25	4.88	0.55	-3.25	-6.24	-8.49	-10.48	-12.82	-16.01	-20.12	-24.88	-29.78	-34.42	-38.67	-42.69	-46.8	-51.35	-56.65	-62.92	-70.16	-77.97	-85.36	-90.72	-92.12	-87.97	-77.64	-61.8	-42.34	-21.71	-2.25	14.5	27.84	37.78	44.67	48.87	50.72	50.69	49.41	47.73	46.45	46.11	46.82	48.25	49.89	51.24	52.02	52.2	51.87	51.12	49.93	48.21	45.82	42.67	38.82	34.41	29.71	25.06	20.85	17.34	14.62	12.51	10.57	8.38	5.68	2.58	-0.56
0.55	-3.25	-6.24	-8.49	-10.48	-12.82	-16.01	-20.12	-24.88	-29.78	-34.42	-38.67	-42.69	-46.8	-51.35	-56.65	-62.92	-70.16	-77.97	-85.36	-90.72	-92.12	-87.97	-77.64	-61.8	-42.34	-21.71	-2.25	14.5	27.84	37.78	44.67	48.87	50.72	50.69	49.41	47.73	46.45	46.11	46.82	48.25	49.89	51.24	52.02	52.2	51.87	51.12	49.93	48.21	45.82	42.67	38.82	34.41	29.71	25.06	20.85	17.34	14.62	12.51	10.57	8.38	5.68	2.58	-0.56	-3.32	-5.53	-7.36	-9.32	-11.93	-15.5	-19.94	-24.85	-29.7	-34.14	-38.08	-41.72	-45.36	-49.31	-53.82	-59.08	-65.18	-71.93	-78.62	-83.97	-86.23	-83.7	-75.4	-61.52	-43.52	-23.64	-4.23	12.89	26.8	37.31	44.63	49.04	50.81	50.3	48.04	44.82	41.46	38.67	36.78	35.78	35.36	35.1	34.59	33.6	32.13	30.38	28.58	26.91	25.35	23.7	21.68	19.13	16.07	12.68	9.18	5.65	2.01	-1.93	-6.3	-11.06	-16.02	-20.91	-25.58	-30.04
-3.32	-5.53	-7.36	-9.32	-11.93	-15.5	-19.94	-24.85	-29.7	-34.14	-38.08	-41.72	-45.36	-49.31	-53.82	-59.08	-65.18	-71.93	-78.62	-83.97	-86.23	-83.7	-75.4	-61.52	-43.52	-23.64	-4.23	12.89	26.8	37.31	44.63	49.04	50.81	50.3	48.04	44.82	41.46	38.67	36.78	35.78	35.36	35.1	34.59	33.6	32.13	30.38	28.58	26.91	25.35	23.7	21.68	19.13	16.07	12.68	9.18	5.65	2.01	-1.93	-6.3	-11.06	-16.02	-20.91	-25.58	-30.04	-34.44	-38.95	-43.65	-48.5	-53.37	-58.17	-62.99	-68.13	-74.02	-81.14	-89.86	-100.24	-111.79	-123.41	-133.38	-139.62	-140.18	-133.8	-120.27	-100.56	-76.43	-49.99	-23.19	2.45	25.84	46.23	63.15	76.35	85.93	92.31	96.22	98.52	99.94	100.99	101.86	102.46	102.53	101.81	100.16	97.59	94.25	90.28	85.71	80.46	74.4	67.41	59.59	51.17	42.53	34.11	26.32	19.46	13.67	8.84	4.61	0.41	-4.29	-9.81	-16.09	-22.8	-29.46	-35.68	-41.29	-46.31
-34.44	-38.95	-43.65	-48.5	-53.37	-58.17	-62.99	-68.13	-74.02	-81.14	-89.86	-100.24	-111.79	-123.41	-133.38	-139.62	-140.18	-133.8	-120.27	-100.56	-76.43	-49.99	-23.19	2.45	25.84	46.23	63.15	76.35	85.93	92.31	96.22	98.52	99.94	100.99	101.86	102.46	102.53	101.81	100.16	97.59	94.25	90.28	85.71	80.46	74.4	67.41	59.59	51.17	42.53	34.11	26.32	19.46	13.67	8.84	4.61	0.41	-4.29	-9.81	-16.09	-22.8	-29.46	-35.68	-41.29	-46.31	-50.97	-55.62	-60.71	-66.65	-73.52	-80.77	-87.11	-90.59	-89.2	-81.56	-67.51	-48.27	-26.15	-3.82	16.37	32.93	45.29	53.66	58.62	60.8	60.76	58.98	56.03	52.6	49.53	47.54	47.02	47.81	49.29	50.67	51.33	51.08	50.16	48.92	47.6	46.11	44.09	41.13	37.05	31.98	26.31	20.52	15.01	9.93	5.27	0.83	-3.62	-8.29	-13.34	-18.78	-24.49	-30.16	-35.4	-39.87	-43.42	-46.25	-48.87	-51.98	-56.25	-62.02	-69.09	-76.59	-83.1	-86.88
-50.97	-55.62	-60.71	-66.65	-73.52	-80.77	-87.11	-90.59	-89.2	-81.56	-67.51	-48.27	-26.15	-3.82	16.37	32.93	45.29	53.66	58.62	60.8	60.76	58.98	56.03	52.6	49.53	47.54	47.02	47.81	49.29	50.67	51.33	51.08	50.16	48.92	47.6	46.11	44.09	41.13	37.05	31.98	26.31	20.52	15.01	9.93	5.27	0.83	-3.62	-8.29	-13.34	-18.78	-24.49	-30.16	-35.4	-39.87	-43.42	-46.25	-48.87	-51.98	-56.25	-62.02	-69.09	-76.59	-83.1	-86.88	-86.33	-80.41	-69.07	-53.21	-34.58	-15.25	2.85	18.41	30.73	39.69	45.45	48.25	48.38	46.31	42.79	38.77	35.24	32.94	32.13	32.6	33.76	35.02	35.97	36.53	36.81	36.97	37	36.62	35.41	33.02	29.33	24.59	19.3	14	9.07	4.6	0.39	-3.89	-8.54	-13.63	-19.05	-24.5	-29.61	-34.09	-37.83	-40.92	-43.7	-46.69	-50.47	-55.51	-61.9	-69.11	-75.93	-80.62	-81.34	-76.74	-66.41	-51.15	-32.72	-13.31	5.03	20.85	33.39	42.47
-86.33	-80.41	-69.07	-53.21	-34.58	-15.25	2.85	18.41	30.73	39.69	45.45	48.25	48.38	46.31	42.79	38.77	35.24	32.94	32.13	32.6	33.76	35.02	35.97	36.53	36.81	36.97	37	36.62	35.41	33.02	29.33	24.59	19.3	14	9.07	4.6	0.39	-3.89	-8.54	-13.63	-19.05	-24.5	-29.61	-34.09	-37.83	-40.92	-43.7	-46.69	-50.47	-55.51	-61.9	-69.11	-75.93	-80.62	-81.34	-76.74	-66.41	-51.15	-32.72	-13.31	5.03	20.85	33.39	42.47	48.23	50.87	50.75	48.32	44.33	39.74	35.54	32.53	31.07	31.01	31.84	32.95	33.88	34.49	34.83	35.01	34.89	34.1	32.15	28.74	23.98	18.46	12.97	8.17	4.29	1.04	-2.17	-5.94	-10.56	-15.89	-21.46	-26.68	-31.15	-34.78	-37.86	-40.95	-44.76	-49.93	-56.73	-64.81	-73.03	-79.57	-82.33	-79.56	-70.54	-55.86	-37.32	-17.38	1.65	18.15	31.34	41.15	47.7	51.13	51.6	49.52	45.76	41.54	38.07	36.13	35.81	36.62	37.81	38.82
48.23	50.87	50.75	48.32	44.33	39.74	35.54	32.53	31.07	31.01	31.84	32.95	33.88	34.49	34.83	35.01	34.89	34.1	32.15	28.74	23.98	18.46	12.97	8.17	4.29	1.04	-2.17	-5.94	-10.56	-15.89	-21.46	-26.68	-31.15	-34.78	-37.86	-40.95	-44.76	-49.93	-56.73	-64.81	-73.03	-79.57	-82.33	-79.56	-70.54	-55.86	-37.32	-17.38	1.65	18.15	31.34	41.15	47.7	51.13	51.6	49.52	45.76	41.54	38.07	36.13	35.81	36.62	37.81	38.82	39.4	39.66	39.72	39.66	39.36	38.61	37.19	34.91	31.67	27.49	22.54	17.21	11.99	7.3	3.3	-0.19	-3.63	-7.52	-12.15	-17.45	-23.06	-28.53	-33.5	-37.85	-41.69	-45.34	-49.19	-53.72	-59.37	-66.32	-74.23	-82	-87.83	-89.6	-85.6	-75.16	-59.06	-39.27	-18.33	1.46	18.58	32.36	42.76	49.96	54.11	55.43	54.35	51.69	48.53	45.84	44.27	43.86	44.27	45	45.65	46.08	46.26	46.19	45.78	44.89	43.35	41.13	38.28	34.91
39.4	39.66	39.72	39.66	39.36	38.61	37.19	34.91	31.67	27.49	22.54	17.21	11.99	7.3	3.3	-0.19	-3.63	-7.52	-12.15	-17.45	-23.06	-28.53	-33.5	-37.85	-41.69	-45.34	-49.19	-53.72	-59.37	-66.32	-74.23	-82	-87.83	-89.6	-85.6	-75.16	-59.06	-39.27	-18.33	1.46	18.58	32.36	42.76	49.96	54.11	55.43	54.35	51.69	48.53	45.84	44.27	43.86	44.27	45	45.65	46.08	46.26	46.19	45.78	44.89	43.35	41.13	38.28	34.91	31.13	27.05	22.77	18.4	14.11	10.07	6.37	3	-0.2	-3.47	-7.06	-11.13	-15.62	-20.34	-24.98	-29.29	-33.18	-36.7	-40.07	-43.54	-47.42	-52.04	-57.73	-64.61	-72.26	-79.59	-84.81	-85.92	-81.32	-70.46	-54.15	-34.31	-13.43	6.15	22.76	35.63	44.72	50.47	53.48	54.26	53.31	51.13	48.28	45.44	43.26	42.19	42.32	43.34	44.66	45.65	45.9	45.32	44.09	42.43	40.47	38.11	35.16	31.45	27.01	22.07	17	12.15	7.69	3.67
31.13	27.05	22.77	18.4	14.11	10.07	6.37	3	-0.2	-3.47	-7.06	-11.13	-15.62	-20.34	-24.98	-29.29	-33.18	-36.7	-40.07	-43.54	-47.42	-52.04	-57.73	-64.61	-72.26	-79.59	-84.81	-85.92	-81.32	-70.46	-54.15	-34.31	-13.43	6.15	22.76	35.63	44.72	50.47	53.48	54.26	53.31	51.13	48.28	45.44	43.26	42.19	42.32	43.34	44.66	45.65	45.9	45.32	44.09	42.43	40.47	38.11	35.16	31.45	27.01	22.07	17	12.15	7.69	3.67	-0.01	-3.43	-6.67	-9.81	-13.01	-16.48	-20.43	-24.9	-29.73	-34.55	-39	-42.87	-46.15	-49.06	-51.97	-55.31	-59.54	-64.96	-71.46	-78.26	-83.84	-86.19	-83.42	-74.51	-59.78	-40.9	-20.32	-0.49	16.72	30.41	40.42	47.05	50.67	51.59	50.21	47.06	42.96	38.89	35.74	34.03	33.75	34.45	35.47	36.27	36.65	36.7	36.61	36.41	35.96	34.9	32.95	29.98	26.12	21.65	16.95	12.35	8.13	4.47	1.39	-1.35	-4.21	-7.73	-12.32	-18.01
-0.01	-3.43	-6.67	-9.81	-13.01	-16.48	-20.43	-24.9	-29.73	-34.55	-39	-42.87	-46.15	-49.06	-51.97	-55.31	-59.54	-64.96	-71.46	-78.26	-83.84	-86.19	-83.42	-74.51	-59.78	-40.9	-20.32	-0.49	16.72	30.41	40.42	47.05	50.67	51.59	50.21	47.06	42.96	38.89	35.74	34.03	33.75	34.45	35.47	36.27	36.65	36.7	36.61	36.41	35.96	34.9	32.95	29.98	26.12	21.65	16.95	12.35	8.13	4.47	1.39	-1.35	-4.21	-7.73	-12.32	-18.01	-24.36	-30.65	-36.15	-40.45	-43.64	-46.26	-49.09	-52.92	-58.28	-65.17	-72.99	-80.41	-85.61	-86.59	-81.85	-70.86	-54.43	-34.47	-13.47	6.27	23.17	36.5	46.22	52.58	55.81	56.11	53.82	49.62	44.53	39.72	36.21	34.51	34.54	35.75	37.33	38.6	39.14	38.83	37.83	36.37	34.68	32.87	30.86	28.52	25.63	22.14	18.14	13.92	9.84	6.15	2.91	-0.06	-3.15	-6.7	-10.88	-15.61	-20.56	-25.29	-29.44	-32.87	-35.77	-38.53	-41.61	-45.45
-24.36	-30.65	-36.15	-40.45	-43.64	-46.26	-49.09	-52.92	-58.28	-65.17	-72.99	-80.41	-85.61	-86.59	-81.85	-70.86	-54.43	-34.47	-13.47	6.27	23.17	36.5	46.22	52.58	55.81	56.11	53.82	49.62	44.53	39.72	36.21	34.51	34.54	35.75	37.33	38.6	39.14	38.83	37.83	36.37	34.68	32.87	30.86	28.52	25.63	22.14	18.14	13.92	9.84	6.15	2.91	-0.06	-3.15	-6.7	-10.88	-15.61	-20.56	-25.29	-29.44	-32.87	-35.77	-38.53	-41.61	-45.45	-50.34	-56.49	-63.87	-72.06	-79.95	-85.79	-87.44	-83.12	-72.11	-55.2	-34.57	-13.02	6.91	23.61	36.51	45.74	51.67	54.54	54.59	52.2	48.08	43.27	38.85	35.68	34.17	34.22	35.34	36.86	38.16	38.81	38.74	38.12	37.2	36.14	34.84	32.95	30.07	26.02	20.96	15.47	10.28	5.94	2.61	-0.03	-2.55	-5.56	-9.38	-13.99	-19.07	-24.18	-28.92	-33.04	-36.49	-39.4	-42.07	-44.94	-48.65	-53.76	-60.59	-68.79	-77.15	-83.68	-86.16	-82.86
-50.34	-56.49	-63.87	-72.06	-79.95	-85.79	-87.44	-83.12	-72.11	-55.2	-34.57	-13.02	6.91	23.61	36.51	45.74	51.67	54.54	54.59	52.2	48.08	43.27	38.85	35.68	34.17	34.22	35.34	36.86	38.16	38.81	38.74	38.12	37.2	36.14	34.84	32.95	30.07	26.02	20.96	15.47	10.28	5.94	2.61	-0.03	-2.55	-5.56	-9.38	-13.99	-19.07	-24.18	-28.92	-33.04	-36.49	-39.4	-42.07	-44.94	-48.65	-53.76	-60.59	-68.79	-77.15	-83.68	-86.16	-82.86	-73.15	-57.84	-38.78	-18.33	1.39	18.84	33.15	43.85	50.74	53.87	53.59	50.74	46.48	42.1	38.63	36.59	35.97	36.37	37.22	38.01	38.43	38.41	38.06	37.5	36.78	35.78	34.21	31.76	28.26	23.88	19.07	14.46	10.48	7.23	4.3	1.07	-3.04	-8.15	-13.95	-19.79	-25.05	-29.43	-33.09	-36.46	-40.03	-44.2	-49.2	-55.11	-61.71	-68.38	-73.91	-76.67	-75	-67.84	-55.22	-38.37	-19.36	-0.44	16.52	30.37	40.63	47.24	50.34	50.21
-73.15	-57.84	-38.78	-18.33	1.39	18.84	33.15	43.85	50.74	53.87	53.59	50.74	46.48	42.1	38.63	36.59	35.97	36.37	37.22	38.01	38.43	38.41	38.06	37.5	36.78	35.78	34.21	31.76	28.26	23.88	19.07	14.46	10.48	7.23	4.3	1.07	-3.04	-8.15	-13.95	-19.79	-25.05	-29.43	-33.09	-36.46	-40.03	-44.2	-49.2	-55.11	-61.71	-68.38	-73.91	-76.67	-75	-67.84	-55.22	-38.37	-19.36	-0.44	16.52	30.37	40.63	47.24	50.34	50.21	47.37	42.59	36.96	31.64	27.57	25.22	24.54	25.03	26.07	27.1	27.76	27.9	27.4	26.13	23.97	20.9	17.11	12.97	8.9	5.16	1.74	-1.57	-5.07	-8.94	-13.2	-17.72	-22.29	-26.69	-30.74	-34.33	-37.45	-40.41	-43.75	-48.23	-54.37	-62.03	-70.12	-76.69	-79.46	-76.61	-67.48	-52.79	-34.41	-14.69	4.17	20.66	33.95	43.81	50.25	53.44	53.68	51.49	47.72	43.39	39.49	36.71	35.26	34.94	35.26	35.78	36.2	36.42	36.39	36.01
47.37	42.59	36.96	31.64	27.57	25.22	24.54	25.03	26.07	27.1	27.76	27.9	27.4	26.13	23.97	20.9	17.11	12.97	8.9	5.16	1.74	-1.57	-5.07	-8.94	-13.2	-17.72	-22.29	-26.69	-30.74	-34.33	-37.45	-40.41	-43.75	-48.23	-54.37	-62.03	-70.12	-76.69	-79.46	-76.61	-67.48	-52.79	-34.41	-14.69	4.17	20.66	33.95	43.81	50.25	53.44	53.68	51.49	47.72	43.39	39.49	36.71	35.26	34.94	35.26	35.78	36.2	36.42	36.39	36.01	35.06	33.25	30.4	26.49	21.76	16.62	11.51	6.71	2.31	-1.82	-5.99	-10.49	-15.48	-20.86	-26.35	-31.54	-36.16	-40.16	-43.79	-47.46	-51.73	-57.06	-63.64	-71.16	-78.57	-84.23	-86.15	-82.61	-72.75	-57.05	-37.29	-16	4.24	21.55	35.06	44.75	51.04	54.41	55.26	53.94	51.06	47.46	44.13	41.86	40.95	41.12	41.7	42.01	41.74	41.04	40.28	39.8	39.6	39.28	38.23	35.96	32.33	27.58	22.27	16.92	11.93	7.38	3.11	-1.17
35.06	33.25	30.4	26.49	21.76	16.62	11.51	6.71	2.31	-1.82	-5.99	-10.49	-15.48	-20.86	-26.35	-31.54	-36.16	-40.16	-43.79	-47.46	-51.73	-57.06	-63.64	-71.16	-78.57	-84.23	-86.15	-82.61	-72.75	-57.05	-37.29	-16	4.24	21.55	35.06	44.75	51.04	54.41	55.26	53.94	51.06	47.46	44.13	41.86	40.95	41.12	41.7	42.01	41.74	41.04	40.28	39.8	39.6	39.28	38.23	35.96	32.33	27.58	22.27	16.92	11.93	7.38	3.11	-1.17	-5.77	-10.86	-16.43	-22.23	-27.9	-33.03	-37.37	-40.98	-44.22	-47.7	-52.13	-58.05	-65.56	-74.14	-82.48	-88.69	-90.72	-86.91	-76.62	-60.47	-40.23	-18.29	2.93	21.59	36.6	47.6	54.68	58.2	58.6	56.51	52.76	48.34	44.27	41.31	39.79	39.54	39.99	40.54	40.74	40.51	40.02	39.44	38.82	37.93	36.39	33.87	30.29	25.84	20.95	16.08	11.57	7.52	3.85	0.31	-3.38	-7.44	-11.92	-16.67	-21.4	-25.77	-29.53	-32.7	-35.55	-38.54
-5.77	-10.86	-16.43	-22.23	-27.9	-33.03	-37.37	-40.98	-44.22	-47.7	-52.13	-58.05	-65.56	-74.14	-82.48	-88.69	-90.72	-86.91	-76.62	-60.47	-40.23	-18.29	2.93	21.59	36.6	47.6	54.68	58.2	58.6	56.51	52.76	48.34	44.27	41.31	39.79	39.54	39.99	40.54	40.74	40.51	40.02	39.44	38.82	37.93	36.39	33.87	30.29	25.84	20.95	16.08	11.57	7.52	3.85	0.31	-3.38	-7.44	-11.92	-16.67	-21.4	-25.77	-29.53	-32.7	-35.55	-38.54	-42.25	-47.21	-53.73	-61.66	-70.22	-77.92	-82.73	-82.67	-76.4	-63.73	-45.86	-24.94	-3.46	16.37	33.03	45.72	54.19	58.57	59.27	56.97	52.68	47.53	42.65	38.83	36.46	35.43	35.29	35.44	35.36	34.82	33.83	32.58	31.13	29.29	26.62	22.67	17.28	10.76	3.83	-2.7	-8.34	-13.02	-17.1	-21.16	-25.61	-30.6	-35.99	-41.45	-46.65	-51.27	-55.14	-58.24	-60.86	-63.65	-67.4	-72.75	-79.66	-87.05	-92.88	-94.67	-90.36	-79.15	-61.82	-40.52
-42.25	-47.21	-53.73	-61.66	-70.22	-77.92	-82.73	-82.67	-76.4	-63.73	-45.86	-24.94	-3.46	16.37	33.03	45.72	54.19	58.57	59.27	56.97	52.68	47.53	42.65	38.83	36.46	35.43	35.29	35.44	35.36	34.82	33.83	32.58	31.13	29.29	26.62	22.67	17.28	10.76	3.83	-2.7	-8.34	-13.02	-17.1	-21.16	-25.61	-30.6	-35.99	-41.45	-46.65	-51.27	-55.14	-58.24	-60.86	-63.65	-67.4	-72.75	-79.66	-87.05	-92.88	-94.67	-90.36	-79.15	-61.82	-40.52	-18.03	3.11	21.18	35.42	45.76	52.46	55.83	56.2	54.02	50	45.05	40.18	36.31	34.13	33.87	35.37	38.14	41.47	44.68	47.26	48.91	49.53	49.09	47.58	45.13	42.09	39.07	36.81	35.77	35.79	36.07	35.45	33.02	28.58	22.78	16.67	11.19	6.76	3.09	-0.46	-4.58	-9.79	-16.44	-24.76	-34.84	-46.31	-58.09	-68.38	-74.98	-75.99	-70.5	-58.94	-42.94	-24.78	-6.8	9.12	21.75	30.4	34.85	35.23	32.13	26.59	20.09	14.29
-18.03	3.11	21.18	35.42	45.76	52.46	55.83	56.2	54.02	50	45.05	40.18	36.31	34.13	33.87	35.37	38.14	41.47	44.68	47.26	48.91	49.53	49.09	47.58	45.13	42.09	39.07	36.81	35.77	35.79	36.07	35.45	33.02	28.58	22.78	16.67	11.19	6.76	3.09	-0.46	-4.58	-9.79	-16.44	-24.76	-34.84	-46.31	-58.09	-68.38	-74.98	-75.99	-70.5	-58.94	-42.94	-24.78	-6.8	9.12	21.75	30.4	34.85	35.23	32.13	26.59	20.09	14.29	10.6	9.77	11.66	15.31	19.37	22.57	24.18	24.18	23.06	21.45	19.76	18.03	15.99	13.35	9.97	5.9	1.34	-3.56	-8.63	-13.47	-17.24	-18.73	-16.84	-11.42	-3.8	3.28	6.5	3.23	-7.31	-23.64	-42.44	-59.71	-71.97	-77.15	-74.83	-66.02	-52.67	-37.11	-21.54	-7.61	3.72	12.17	17.83	20.88	21.46	19.86	16.66	12.89	9.84	8.57	9.48	12.08	15.25	17.79	18.94	18.73	17.76	16.81	16.34	16.28	16.03	14.89	12.36	8.4
10.6	9.77	11.66	15.31	19.37	22.57	24.18	24.18	23.06	21.45	19.76	18.03	15.99	13.35	9.97	5.9	1.34	-3.56	-8.63	-13.47	-17.24	-18.73	-16.84	-11.42	-3.8	3.28	6.5	3.23	-7.31	-23.64	-42.44	-59.71	-71.97	-77.15	-74.83	-66.02	-52.67	-37.11	-21.54	-7.61	3.72	12.17	17.83	20.88	21.46	19.86	16.66	12.89	9.84	8.57	9.48	12.08	15.25	17.79	18.94	18.73	17.76	16.81	16.34	16.28	16.03	14.89	12.36	8.4	3.38	-2.11	-7.5	-12.44	-16.84	-20.83	-24.65	-28.57	-32.91	-38.04	-44.34	-51.96	-60.54	-68.97	-75.48	-77.96	-74.65	-64.8	-49.03	-29.2	-7.93	12.19	29.26	42.38	51.55	57.28	60.2	60.8	59.36	56.2	51.83	46.98	42.54	39.23	37.4	36.83	36.94	36.95	36.33	34.86	32.71	30.22	27.66	25.01	22.01	18.28	13.55	7.82	1.37	-5.37	-11.98	-18.18	-23.85	-29.06	-33.91	-38.6	-43.41	-48.75	-55.07	-62.59	-70.99	-79.08	-84.94	-86.36
3.38	-2.11	-7.5	-12.44	-16.84	-20.83	-24.65	-28.57	-32.91	-38.04	-44.34	-51.96	-60.54	-68.97	-75.48	-77.96	-74.65	-64.8	-49.03	-29.2	-7.93	12.19	29.26	42.38	51.55	57.28	60.2	60.8	59.36	56.2	51.83	46.98	42.54	39.23	37.4	36.83	36.94	36.95	36.33	34.86	32.71	30.22	27.66	25.01	22.01	18.28	13.55	7.82	1.37	-5.37	-11.98	-18.18	-23.85	-29.06	-33.91	-38.6	-43.41	-48.75	-55.07	-62.59	-70.99	-79.08	-84.94	-86.36	-81.5	-69.69	-51.7	-29.65	-6.36	15.49	33.97	48.21	58.21	64.49	67.66	68.22	66.64	63.44	59.33	55.13	51.58	49.1	47.7	47.04	46.63	46.04	45	43.46	41.37	38.74	35.47	31.57	27.11	22.28	17.32	12.34	7.35	2.17	-3.35	-9.3	-15.54	-21.78	-27.72	-33.14	-38.07	-42.7	-47.41	-52.64	-58.81	-66.15	-74.47	-82.86	-89.69	-92.82	-90.21	-80.72	-64.59	-43.62	-20.61	1.49	20.41	35.02	45.26	51.66	54.89	55.45	53.75	50.23
-81.5	-69.69	-51.7	-29.65	-6.36	15.49	33.97	48.21	58.21	64.49	67.66	68.22	66.64	63.44	59.33	55.13	51.58	49.1	47.7	47.04	46.63	46.04	45	43.46	41.37	38.74	35.47	31.57	27.11	22.28	17.32	12.34	7.35	2.17	-3.35	-9.3	-15.54	-21.78	-27.72	-33.14	-38.07	-42.7	-47.41	-52.64	-58.81	-66.15	-74.47	-82.86	-89.69	-92.82	-90.21	-80.72	-64.59	-43.62	-20.61	1.49	20.41	35.02	45.26	51.66	54.89	55.45	53.75	50.23	45.61	40.85	36.82	34.11	32.82	32.56	32.76	32.93	32.81	32.36	31.6	30.47	28.82	26.53	23.58	20.06	16.04	11.47	6.23	0.21	-6.51	-13.53	-20.26	-26.2	-31.17	-35.38	-39.33	-43.54	-48.43	-54.25	-61.1	-68.85	-76.94	-84.16	-88.66	-88.37	-81.71	-68.31	-49.31	-27.13	-4.68	15.54	32.06	44.47	53.08	58.43	60.86	60.6	57.95	53.53	48.3	43.31	39.36	36.81	35.5	34.95	34.61	34.1	33.22	31.94	30.33	28.43	26.19	23.52
45.61	40.85	36.82	34.11	32.82	32.56	32.76	32.93	32.81	32.36	31.6	30.47	28.82	26.53	23.58	20.06	16.04	11.47	6.23	0.21	-6.51	-13.53	-20.26	-26.2	-31.17	-35.38	-39.33	-43.54	-48.43	-54.25	-61.1	-68.85	-76.94	-84.16	-88.66	-88.37	-81.71	-68.31	-49.31	-27.13	-4.68	15.54	32.06	44.47	53.08	58.43	60.86	60.6	57.95	53.53	48.3	43.31	39.36	36.81	35.5	34.95	34.61	34.1	33.22	31.94	30.33	28.43	26.19	23.52	20.2	16.01	10.76	4.5	-2.48	-9.62	-16.33	-22.17	-27.05	-31.27	-35.35	-39.88	-45.31	-51.9	-59.63	-68.17	-76.67	-83.69	-87.36	-85.82	-77.82	-63.35	-43.8	-21.58	0.57	20.4	36.57	48.7	57.04	62.03	64.06	63.44	60.62	56.26	51.27	46.61	42.99	40.71	39.58	39.09	38.64	37.78	36.35	34.38	32.06	29.48	26.69	23.63	20.22	16.39	12.04	7.08	1.43	-4.86	-11.59	-18.44	-25	-30.94	-36.07	-40.46	-44.36	-48.21	-52.58	-58.01
20.2	16.01	10.76	4.5	-2.48	-9.62	-16.33	-22.17	-27.05	-31.27	-35.35	-39.88	-45.31	-51.9	-59.63	-68.17	-76.67	-83.69	-87.36	-85.82	-77.82	-63.35	-43.8	-21.58	0.57	20.4	36.57	48.7	57.04	62.03	64.06	63.44	60.62	56.26	51.27	46.61	42.99	40.71	39.58	39.09	38.64	37.78	36.35	34.38	32.06	29.48	26.69	23.63	20.22	16.39	12.04	7.08	1.43	-4.86	-11.59	-18.44	-25	-30.94	-36.07	-40.46	-44.36	-48.21	-52.58	-58.01	-64.82	-72.68	-80.48	-86.27	-87.83	-83.34	-72.09	-54.87	-33.69	-11.25	9.96	28.13	42.41	52.64	59.07	62.07	62.06	59.61	55.53	50.81	46.43	43.1	41.06	40.09	39.71	39.4	38.9	38.12	37.14	35.97	34.47	32.41	29.56	25.86	21.46	16.66	11.79	7.04	2.43	-2.18	-6.99	-12.14	-17.68	-23.42	-29.1	-34.35	-38.92	-42.77	-46.23	-49.92	-54.63	-60.94	-68.78	-77.17	-84.23	-87.67	-85.47	-76.67	-61.75	-42.43	-21.16	-0.28	18.46	34.07
-64.82	-72.68	-80.48	-86.27	-87.83	-83.34	-72.09	-54.87	-33.69	-11.25	9.96	28.13	42.41	52.64	59.07	62.07	62.06	59.61	55.53	50.81	46.43	43.1	41.06	40.09	39.71	39.4	38.9	38.12	37.14	35.97	34.47	32.41	29.56	25.86	21.46	16.66	11.79	7.04	2.43	-2.18	-6.99	-12.14	-17.68	-23.42	-29.1	-34.35	-38.92	-42.77	-46.23	-49.92	-54.63	-60.94	-68.78	-77.17	-84.23	-87.67	-85.47	-76.67	-61.75	-42.43	-21.16	-0.28	18.46	34.07	46.13	54.47	59.03	59.93	57.67	53.2	47.83	42.88	39.29	37.38	36.92	37.29	37.82	38.04	37.77	37.07	36.06	34.84	33.35	31.39	28.76	25.34	21.21	16.68	12.13	7.87	4.01	0.36	-3.38	-7.54	-12.24	-17.4	-22.72	-27.82	-32.38	-36.23	-39.45	-42.36	-45.47	-49.43	-54.83	-61.87	-70.04	-77.93	-83.44	-84.29	-78.83	-66.71	-49.02	-28.04	-6.44	13.46	30.16	43.04	52.05	57.38	59.27	58.11	54.55	49.56	44.27	39.62	36.19	34.11
46.13	54.47	59.03	59.93	57.67	53.2	47.83	42.88	39.29	37.38	36.92	37.29	37.82	38.04	37.77	37.07	36.06	34.84	33.35	31.39	28.76	25.34	21.21	16.68	12.13	7.87	4.01	0.36	-3.38	-7.54	-12.24	-17.4	-22.72	-27.82	-32.38	-36.23	-39.45	-42.36	-45.47	-49.43	-54.83	-61.87	-70.04	-77.93	-83.44	-84.29	-78.83	-66.71	-49.02	-28.04	-6.44	13.46	30.16	43.04	52.05	57.38	59.27	58.11	54.55	49.56	44.27	39.62	36.19	34.11	33.09	32.69	32.47	32.08	31.38	30.36	29.18	27.97	26.74	25.27	23.15	19.96	15.52	10.08	4.3	-1.02	-5.35	-8.64	-11.32	-14.08	-17.51	-21.85	-26.91	-32.26	-37.44	-42.12	-46.24	-49.91	-53.43	-57.12	-61.34	-66.35	-72.12	-78.04	-82.85	-84.76	-81.97	-73.27	-58.66	-39.44	-17.93	3.36	22.26	37.48	48.49	55.34	58.31	57.85	54.63	49.61	43.97	38.9	35.27	33.45	33.24	34.08	35.32	36.44	37.19	37.53	37.48	37.03	35.99	34.11
33.09	32.69	32.47	32.08	31.38	30.36	29.18	27.97	26.74	25.27	23.15	19.96	15.52	10.08	4.3	-1.02	-5.35	-8.64	-11.32	-14.08	-17.51	-21.85	-26.91	-32.26	-37.44	-42.12	-46.24	-49.91	-53.43	-57.12	-61.34	-66.35	-72.12	-78.04	-82.85	-84.76	-81.97	-73.27	-58.66	-39.44	-17.93	3.36	22.26	37.48	48.49	55.34	58.31	57.85	54.63	49.61	43.97	38.9	35.27	33.45	33.24	34.08	35.32	36.44	37.19	37.53	37.48	37.03	35.99	34.11	31.17	27.15	22.29	17.03	11.87	7.21	3.2	-0.3	-3.6	-7.07	-10.95	-15.27	-19.79	-24.09	-27.8	-30.78	-33.19	-35.57	-38.61	-42.97	-48.94	-56.3	-64.06	-70.6	-73.94	-72.29	-64.64	-51.14	-33.24	-13.24	6.29	23.24	36.34	45.19	50.05	51.46	50.03	46.39	41.26	35.47	29.91	25.36	22.3	20.8	20.58	21.18	22.13	23.15	24.03	24.66	24.85	24.33	22.86	20.32	16.86	12.82	8.61	4.5	0.47	-3.72	-8.32	-13.37	-18.58	-23.5
31.17	27.15	22.29	17.03	11.87	7.21	3.2	-0.3	-3.6	-7.07	-10.95	-15.27	-19.79	-24.09	-27.8	-30.78	-33.19	-35.57	-38.61	-42.97	-48.94	-56.3	-64.06	-70.6	-73.94	-72.29	-64.64	-51.14	-33.24	-13.24	6.29	23.24	36.34	45.19	50.05	51.46	50.03	46.39	41.26	35.47	29.91	25.36	22.3	20.8	20.58	21.18	22.13	23.15	24.03	24.66	24.85	24.33	22.86	20.32	16.86	12.82	8.61	4.5	0.47	-3.72	-8.32	-13.37	-18.58	-23.5	-27.71	-31.04	-33.72	-36.24	-39.18	-43.07	-48.19	-54.45	-61.25	-67.41	-71.27	-71.1	-65.61	-54.52	-38.78	-20.31	-1.39	15.95	30.35	41.19	48.33	51.92	52.18	49.55	44.71	38.65	32.41	26.96	22.95	20.63	19.92	20.46	21.71	23.1	24.1	24.41	23.95	22.9	21.48	19.81	17.77	15.02	11.2	6.16	0.14	-6.27	-12.39	-17.72	-22.14	-25.89	-29.48	-33.36	-37.89	-43.2	-49.35	-56.17	-63.18	-69.37	-73.21	-73.04	-67.56	-56.51	-40.84	-22.52
-27.71	-31.04	-33.72	-36.24	-39.18	-43.07	-48.19	-54.45	-61.25	-67.41	-71.27	-71.1	-65.61	-54.52	-38.78	-20.31	-1.39	15.95	30.35	41.19	48.33	51.92	52.18	49.55	44.71	38.65	32.41	26.96	22.95	20.63	19.92	20.46	21.71	23.1	24.1	24.41	23.95	22.9	21.48	19.81	17.77	15.02	11.2	6.16	0.14	-6.27	-12.39	-17.72	-22.14	-25.89	-29.48	-33.36	-37.89	-43.2	-49.35	-56.17	-63.18	-69.37	-73.21	-73.04	-67.56	-56.51	-40.84	-22.52	-3.89	13.05	27.01	37.44	44.23	47.45	47.27	44.06	38.56	31.87	25.21	19.58	15.54	13.09	11.87	11.35	11.1	10.89	10.64	10.35	9.93	9.23	7.92	5.63	2.08	-2.75	-8.55	-14.71	-20.45	-25.17	-28.62	-31.1	-33.38	-36.5	-41.32	-48.23	-56.72	-65.4	-72.23	-75.05	-72.25	-63.24	-48.69	-30.28	-10.25	9.14	26.09	39.45	48.79	54.14	55.93	54.76	51.33	46.48	41.08	36.03	32.05	29.54	28.43	28.23	28.27	27.98	27.14	25.91
-3.89	13.05	27.01	37.44	44.23	47.45	47.27	44.06	38.56	31.87	25.21	19.58	15.54	13.09	11.87	11.35	11.1	10.89	10.64	10.35	9.93	9.23	7.92	5.63	2.08	-2.75	-8.55	-14.71	-20.45	-25.17	-28.62	-31.1	-33.38	-36.5	-41.32	-48.23	-56.72	-65.4	-72.23	-75.05	-72.25	-63.24	-48.69	-30.28	-10.25	9.14	26.09	39.45	48.79	54.14	55.93	54.76	51.33	46.48	41.08	36.03	32.05	29.54	28.43	28.23	28.27	27.98	27.14	25.91	24.61	23.39	22.04	19.97	16.53	11.33	4.56	-3.08	-10.65	-17.35	-22.84	-27.29	-31.28	-35.52	-40.66	-47.14	-54.98	-63.63	-71.75	-77.37	-78.38	-73.17	-61.39	-44.16	-23.77	-2.95	15.99	31.7	43.69	52.09	57.1	58.87	57.61	53.83	48.53	42.95	38.28	35.23	33.89	33.75	34.04	34.09	33.55	32.43	30.9	29.13	27.06	24.37	20.68	15.66	9.26	1.72	-6.42	-14.53	-21.99	-28.43	-33.85	-38.63	-43.45	-49.13	-56.25	-64.82	-73.95	-81.99
24.61	23.39	22.04	19.97	16.53	11.33	4.56	-3.08	-10.65	-17.35	-22.84	-27.29	-31.28	-35.52	-40.66	-47.14	-54.98	-63.63	-71.75	-77.37	-78.38	-73.17	-61.39	-44.16	-23.77	-2.95	15.99	31.7	43.69	52.09	57.1	58.87	57.61	53.83	48.53	42.95	38.28	35.23	33.89	33.75	34.04	34.09	33.55	32.43	30.9	29.13	27.06	24.37	20.68	15.66	9.26	1.72	-6.42	-14.53	-21.99	-28.43	-33.85	-38.63	-43.45	-49.13	-56.25	-64.82	-73.95	-81.99	-86.85	-86.65	-80.29	-67.82	-50.37	-29.83	-8.36	12.04	29.78	43.81	53.55	58.87	60.13	58.11	53.93	48.88	44.1	40.34	37.9	36.63	36.11	35.86	35.46	34.73	33.54	31.88	29.64	26.61	22.51	17.16	10.6	3.22	-4.34	-11.33	-17.26	-22.11	-26.36	-30.82	-36.34	-43.48	-52.19	-61.74	-70.68	-77.06	-78.9	-74.66	-63.83	-47.15	-26.55	-4.6	16.14	33.79	47.29	56.39	61.31	62.5	60.59	56.42	51.09	45.8	41.61	39.04	37.97	37.76
-86.85	-86.65	-80.29	-67.82	-50.37	-29.83	-8.36	12.04	29.78	43.81	53.55	58.87	60.13	58.11	53.93	48.88	44.1	40.34	37.9	36.63	36.11	35.86	35.46	34.73	33.54	31.88	29.64	26.61	22.51	17.16	10.6	3.22	-4.34	-11.33	-17.26	-22.11	-26.36	-30.82	-36.34	-43.48	-52.19	-61.74	-70.68	-77.06	-78.9	-74.66	-63.83	-47.15	-26.55	-4.6	16.14	33.79	47.29	56.39	61.31	62.5	60.59	56.42	51.09	45.8	41.61	39.04	37.97	37.76	37.54	36.71	35.11	32.99	30.72	28.47	26.03	22.9	18.6	12.92	6.13	-1.15	-8.21	-14.53	-19.95	-24.68	-29.2	-34.12	-40.06	-47.46	-56.28	-65.74	-74.18	-79.22	-78.58	-70.81	-55.99	-35.81	-13.06	9.32	29.07	44.91	56.45	63.76	67.06	66.64	63.14	57.61	51.47	46.11	42.48	40.86	40.84	41.67	42.6	43.08	42.86	41.84	39.94	37.08	33.28	28.71	23.73	18.81	14.3	10.26	6.38	2.18	-2.78	-8.64	-15.15	-21.84	-28.15	-33.68
37.54	36.71	35.11	32.99	30.72	28.47	26.03	22.9	18.6	12.92	6.13	-1.15	-8.21	-14.53	-19.95	-24.68	-29.2	-34.12	-40.06	-47.46	-56.28	-65.74	-74.18	-79.22	-78.58	-70.81	-55.99	-35.81	-13.06	9.32	29.07	44.91	56.45	63.76	67.06	66.64	63.14	57.61	51.47	46.11	42.48	40.86	40.84	41.67	42.6	43.08	42.86	41.84	39.94	37.08	33.28	28.71	23.73	18.81	14.3	10.26	6.38	2.18	-2.78	-8.64	-15.15	-21.84	-28.15	-33.68	-38.34	-42.3	-46	-50.07	-55.26	-62.12	-70.7	-80.13	-88.51	-93.31	-92.11	-83.51	-67.68	-46.4	-22.42	1.4	22.74	40.26	53.4	62.18	66.86	67.94	66.15	62.5	58.13	54.12	51.25	49.9	49.99	51.11	52.66	53.98	54.52	53.96	52.31	49.83	46.93	43.92	40.87	37.54	33.62	28.92	23.56	17.95	12.58	7.8	3.61	-0.29	-4.31	-8.76	-13.72	-19.08	-24.59	-29.98	-35.06	-39.71	-43.89	-47.7	-51.45	-55.6	-60.79	-67.54	-75.96	-85.4
-38.34	-42.3	-46	-50.07	-55.26	-62.12	-70.7	-80.13	-88.51	-93.31	-92.11	-83.51	-67.68	-46.4	-22.42	1.4	22.74	40.26	53.4	62.18	66.86	67.94	66.15	62.5	58.13	54.12	51.25	49.9	49.99	51.11	52.66	53.98	54.52	53.96	52.31	49.83	46.93	43.92	40.87	37.54	33.62	28.92	23.56	17.95	12.58	7.8	3.61	-0.29	-4.31	-8.76	-13.72	-19.08	-24.59	-29.98	-35.06	-39.71	-43.89	-47.7	-51.45	-55.6	-60.79	-67.54	-75.96	-85.4	-94.31	-100.45	-101.44	-95.52	-82.19	-62.51	-38.8	-13.96	9.31	29.12	44.53	55.37	61.92	64.6	63.93	60.64	55.67	50.19	45.3	41.8	39.94	39.46	39.7	39.96	39.78	39.03	37.88	36.59	35.23	33.58	31.2	27.71	22.99	17.35	11.4	5.83	1.05	-2.92	-6.45	-10.09	-14.3	-19.27	-24.84	-30.64	-36.16	-40.94	-44.74	-47.65	-50.12	-52.88	-56.79	-62.56	-70.35	-79.44	-88.21	-94.29	-95.26	-89.34	-76.09	-56.65	-33.4	-9.22	13.25	32.25
-94.31	-100.45	-101.44	-95.52	-82.19	-62.51	-38.8	-13.96	9.31	29.12	44.53	55.37	61.92	64.6	63.93	60.64	55.67	50.19	45.3	41.8	39.94	39.46	39.7	39.96	39.78	39.03	37.88	36.59	35.23	33.58	31.2	27.71	22.99	17.35	11.4	5.83	1.05	-2.92	-6.45	-10.09	-14.3	-19.27	-24.84	-30.64	-36.16	-40.94	-44.74	-47.65	-50.12	-52.88	-56.79	-62.56	-70.35	-79.44	-88.21	-94.29	-95.26	-89.34	-76.09	-56.65	-33.4	-9.22	13.25	32.25	46.97	57.35	63.67	66.35	65.89	62.96	58.5	53.59	49.27	46.29	44.92	44.92	45.68	46.44	46.64	46.02	44.72	43.09	41.42	39.73	37.65	34.63	30.25	24.52	17.95	11.35	5.5	0.76	-3.02	-6.41	-10.11	-14.59	-19.93	-25.79	-31.62	-36.92	-41.37	-44.95	-47.93	-50.75	-54.05	-58.48	-64.62	-72.61	-81.85	-90.81	-97.17	-98.41	-92.71	-79.61	-60.25	-37.04	-12.88	9.71	29.05	44.39	55.62	62.89	66.47	66.71	64.21	59.91	54.99	50.62
46.97	57.35	63.67	66.35	65.89	62.96	58.5	53.59	49.27	46.29	44.92	44.92	45.68	46.44	46.64	46.02	44.72	43.09	41.42	39.73	37.65	34.63	30.25	24.52	17.95	11.35	5.5	0.76	-3.02	-6.41	-10.11	-14.59	-19.93	-25.79	-31.62	-36.92	-41.37	-44.95	-47.93	-50.75	-54.05	-58.48	-64.62	-72.61	-81.85	-90.81	-97.17	-98.41	-92.71	-79.61	-60.25	-37.04	-12.88	9.71	29.05	44.39	55.62	62.89	66.47	66.71	64.21	59.91	54.99	50.62	47.66	46.44	46.66	47.59	48.38	48.41	47.46	45.74	43.62	41.37	39.05	36.43	33.24	29.27	24.52	19.2	13.66	8.27	3.35	-0.94	-4.65	-8.07	-11.59	-15.61	-20.38	-25.8	-31.51	-36.98	-41.78	-45.74	-49.07	-52.27	-56.05	-61.12	-67.93	-76.38	-85.62	-94	-99.37	-99.63	-93.39	-80.45	-62	-40.21	-17.7	3.15	20.68	33.99	42.85	47.47	48.31	46.04	41.6	36.17	31.04	27.36	25.87	26.64	29.17	32.56	35.84	38.37	39.95	40.73
47.66	46.44	46.66	47.59	48.38	48.41	47.46	45.74	43.62	41.37	39.05	36.43	33.24	29.27	24.52	19.2	13.66	8.27	3.35	-0.94	-4.65	-8.07	-11.59	-15.61	-20.38	-25.8	-31.51	-36.98	-41.78	-45.74	-49.07	-52.27	-56.05	-61.12	-67.93	-76.38	-85.62	-94	-99.37	-99.63	-93.39	-80.45	-62	-40.21	-17.7	3.15	20.68	33.99	42.85	47.47	48.31	46.04	41.6	36.17	31.04	27.36	25.87	26.64	29.17	32.56	35.84	38.37	39.95	40.73	41.02	40.97	40.45	39.08	36.46	32.39	27.1	21.13	15.17	9.75	4.97	0.57	-3.97	-9.08	-14.84	-20.98	-26.95	-32.19	-36.37	-39.53	-42.09	-44.77	-48.47	-53.98	-61.69	-71.28	-81.44	-90.03	-94.51	-92.72	-83.52	-67.32	-45.9	-21.96	1.71	22.91	40.34	53.55	62.69	68.1	70.17	69.35	66.23	61.59	56.38	51.44	47.34	44.29	42.09	40.34	38.69	36.93	35.11	33.42	32	30.75	29.36	27.33	24.33	20.38	15.92	11.7	8.41	6.27
41.02	40.97	40.45	39.08	36.46	32.39	27.1	21.13	15.17	9.75	4.97	0.57	-3.97	-9.08	-14.84	-20.98	-26.95	-32.19	-36.37	-39.53	-42.09	-44.77	-48.47	-53.98	-61.69	-71.28	-81.44	-90.03	-94.51	-92.72	-83.52	-67.32	-45.9	-21.96	1.71	22.91	40.34	53.55	62.69	68.1	70.17	69.35	66.23	61.59	56.38	51.44	47.34	44.29	42.09	40.34	38.69	36.93	35.11	33.42	32	30.75	29.36	27.33	24.33	20.38	15.92	11.7	8.41	6.27	4.91	3.47	0.98	-3.21	-9.17	-16.43	-24.23	-31.77	-38.42	-43.88	-48.1	-51.35	-54.2	-57.48	-62	-68.16	-75.5	-82.57	-87.21	-87.18	-80.94	-68.24	-50.25	-29.19	-7.62	12.19	28.71	41.21	49.58	54.02	54.96	53.01	49.08	44.26	39.75	36.52	35.13	35.57	37.39	39.83	42.16	43.75	44.29	43.72	42.25	40.19	37.85	35.35	32.59	29.37	25.53	21.19	16.72	12.56	9	5.99	3.16	-0.01	-3.83	-8.24	-12.77	-16.77	-19.79	-21.74
4.91	3.47	0.98	-3.21	-9.17	-16.43	-24.23	-31.77	-38.42	-43.88	-48.1	-51.35	-54.2	-57.48	-62	-68.16	-75.5	-82.57	-87.21	-87.18	-80.94	-68.24	-50.25	-29.19	-7.62	12.19	28.71	41.21	49.58	54.02	54.96	53.01	49.08	44.26	39.75	36.52	35.13	35.57	37.39	39.83	42.16	43.75	44.29	43.72	42.25	40.19	37.85	35.35	32.59	29.37	25.53	21.19	16.72	12.56	9	5.99	3.16	-0.01	-3.83	-8.24	-12.77	-16.77	-19.79	-21.74	-23.04	-24.45	-26.79	-30.72	-36.63	-44.56	-54.26	-65.02	-75.59	-84.19	-88.77	-87.59	-79.79	-65.79	-47.28	-26.66	-6.37	11.7	26.44	37.45	44.73	48.44	48.92	46.68	42.5	37.31	32.08	27.57	24.3	22.54	22.31	23.51	25.87	29.01	32.35	35.26	37.14	37.53	36.12	32.86	27.9	21.68	14.91	8.45	3.06	-0.8	-3.29	-5.11	-7.23	-10.51	-15.4	-21.76	-29	-36.4	-43.36	-49.59	-55.08	-60.02	-64.69	-69.4	-74.28	-79.17	-83.38	-85.69
-23.04	-24.45	-26.79	-30.72	-36.63	-44.56	-54.26	-65.02	-75.59	-84.19	-88.77	-87.59	-79.79	-65.79	-47.28	-26.66	-6.37	11.7	26.44	37.45	44.73	48.44	48.92	46.68	42.5	37.31	32.08	27.57	24.3	22.54	22.31	23.51	25.87	29.01	32.35	35.26	37.14	37.53	36.12	32.86	27.9	21.68	14.91	8.45	3.06	-0.8	-3.29	-5.11	-7.23	-10.51	-15.4	-21.76	-29	-36.4	-43.36	-49.59	-55.08	-60.02	-64.69	-69.4	-74.28	-79.17	-83.38	-85.69	-84.59	-78.81	-67.86	-52.31	-33.76	-14.27	4.26	20.56	34.04	44.59	52.15	56.62	57.98	56.44	52.68	47.7	42.62	38.29	35.17	33.36	32.76	33.23	34.58	36.52	38.57	40.01	40.15	38.48	34.9	29.74	23.64	17.28	11.16	5.43	-0.01	-5.37	-10.76	-16.08	-21.06	-25.4	-28.9	-31.58	-33.73	-35.85	-38.54	-42.53	-48.4	-56.42	-66.14	-76.23	-84.58	-88.76	-86.79	-77.79	-62.32	-42.28	-20.22	1.27	20.18	35.39	46.52	53.76	57.59	58.58
-84.59	-78.81	-67.86	-52.31	-33.76	-14.27	4.26	20.56	34.04	44.59	52.15	56.62	57.98	56.44	52.68	47.7	42.62	38.29	35.17	33.36	32.76	33.23	34.58	36.52	38.57	40.01	40.15	38.48	34.9	29.74	23.64	17.28	11.16	5.43	-0.01	-5.37	-10.76	-16.08	-21.06	-25.4	-28.9	-31.58	-33.73	-35.85	-38.54	-42.53	-48.4	-56.42	-66.14	-76.23	-84.58	-88.76	-86.79	-77.79	-62.32	-42.28	-20.22	1.27	20.18	35.39	46.52	53.76	57.59	58.58	57.32	54.45	50.68	46.75	43.37	40.98	39.69	39.24	39.15	38.96	38.45	37.67	36.83	36.05	35.19	33.86	31.6	28.1	23.43	18.03	12.53	7.48	3.12	-0.7	-4.42	-8.5	-13.22	-18.52	-24.08	-29.53	-34.59	-39.21	-43.56	-47.99	-52.9	-58.76	-65.84	-73.94	-82.2	-88.92	-91.97	-89.37	-80.08	-64.46	-44.22	-21.89	0.01	19.55	35.71	48.22	57.16	62.67	64.95	64.24	61.12	56.54	51.65	47.53	44.89	43.84	43.93	44.45	44.74	44.46
57.32	54.45	50.68	46.75	43.37	40.98	39.69	39.24	39.15	38.96	38.45	37.67	36.83	36.05	35.19	33.86	31.6	28.1	23.43	18.03	12.53	7.48	3.12	-0.7	-4.42	-8.5	-13.22	-18.52	-24.08	-29.53	-34.59	-39.21	-43.56	-47.99	-52.9	-58.76	-65.84	-73.94	-82.2	-88.92	-91.97	-89.37	-80.08	-64.46	-44.22	-21.89	0.01	19.55	35.71	48.22	57.16	62.67	64.95	64.24	61.12	56.54	51.65	47.53	44.89	43.84	43.93	44.45	44.74	44.46	43.61	42.36	40.89	39.15	36.91	33.92	30.06	25.43	20.37	15.31	10.66	6.7	3.46	0.7	-1.99	-5.1	-8.92	-13.44	-18.34	-23.15	-27.43	-31.02	-34.05	-36.88	-40.02	-44.08	-49.65	-57.07	-66.14	-75.81	-84.18	-88.87	-87.77	-79.8	-65.28	-45.93	-24.22	-2.71	16.63	32.6	44.72	52.96	57.5	58.68	57.01	53.29	48.51	43.73	39.83	37.22	35.85	35.24	34.85	34.23	33.31	32.23	31.26	30.58	30.11	29.57	28.51	26.49	23.27	18.88
43.61	42.36	40.89	39.15	36.91	33.92	30.06	25.43	20.37	15.31	10.66	6.7	3.46	0.7	-1.99	-5.1	-8.92	-13.44	-18.34	-23.15	-27.43	-31.02	-34.05	-36.88	-40.02	-44.08	-49.65	-57.07	-66.14	-75.81	-84.18	-88.87	-87.77	-79.8	-65.28	-45.93	-24.22	-2.71	16.63	32.6	44.72	52.96	57.5	58.68	57.01	53.29	48.51	43.73	39.83	37.22	35.85	35.24	34.85	34.23	33.31	32.23	31.26	30.58	30.11	29.57	28.51	26.49	23.27	18.88	13.7	8.38	3.59	-0.3	-3.34	-6.08	-9.19	-13.21	-18.15	-23.63	-29.07	-33.97	-38.18	-41.84	-45.21	-48.59	-52.29	-56.74	-62.33	-69.17	-76.68	-83.4	-87.19	-85.91	-78.21	-64.19	-45.35	-24.14	-3.08	15.83	31.45	43.29	51.27	55.47	56.14	53.85	49.55	44.51	39.92	36.66	35	34.68	35.1	35.62	35.84	35.6	34.97	34.08	32.97	31.54	29.56	26.78	23.07	18.54	13.54	8.57	4.09	0.27	-3.07	-6.38	-10.13	-14.62	-19.76	-25.11
13.7	8.38	3.59	-0.3	-3.34	-6.08	-9.19	-13.21	-18.15	-23.63	-29.07	-33.97	-38.18	-41.84	-45.21	-48.59	-52.29	-56.74	-62.33	-69.17	-76.68	-83.4	-87.19	-85.91	-78.21	-64.19	-45.35	-24.14	-3.08	15.83	31.45	43.29	51.27	55.47	56.14	53.85	49.55	44.51	39.92	36.66	35	34.68	35.1	35.62	35.84	35.6	34.97	34.08	32.97	31.54	29.56	26.78	23.07	18.54	13.54	8.57	4.09	0.27	-3.07	-6.38	-10.13	-14.62	-19.76	-25.11	-30.13	-34.38	-37.76	-40.54	-43.29	-46.69	-51.38	-57.72	-65.53	-73.99	-81.57	-86.31	-86.27	-80.17	-67.84	-50.38	-29.85	-8.67	10.96	27.61	40.6	49.93	55.84	58.66	58.71	56.48	52.7	48.39	44.56	41.92	40.69	40.54	40.83	40.95	40.6	39.86	38.98	38.14	37.25	35.9	33.6	29.99	25.07	19.26	13.26	7.74	3.11	-0.68	-4.06	-7.69	-12.06	-17.32	-23.17	-29.06	-34.4	-38.86	-42.51	-45.73	-49.1	-53.26	-58.73	-65.71	-73.87	-82.24
-30.13	-34.38	-37.76	-40.54	-43.29	-46.69	-51.38	-57.72	-65.53	-73.99	-81.57	-86.31	-86.27	-80.17	-67.84	-50.38	-29.85	-8.67	10.96	27.61	40.6	49.93	55.84	58.66	58.71	56.48	52.7	48.39	44.56	41.92	40.69	40.54	40.83	40.95	40.6	39.86	38.98	38.14	37.25	35.9	33.6	29.99	25.07	19.26	13.26	7.74	3.11	-0.68	-4.06	-7.69	-12.06	-17.32	-23.17	-29.06	-34.4	-38.86	-42.51	-45.73	-49.1	-53.26	-58.73	-65.71	-73.87	-82.24	-89.18	-92.73	-91.1	-83.22	-69.22	-50.41	-28.98	-7.4	12.2	28.44	40.75	49.24	54.41	56.82	57.03	55.54	52.94	49.96	47.33	45.67	45.19	45.65	46.44	46.86	46.45	45.19	43.37	41.4	39.52	37.66	35.51	32.71	29.07	24.64	19.72	14.69	9.89	5.5	1.5	-2.28	-6.16	-10.39	-15.12	-20.23	-25.45	-30.39	-34.76	-38.55	-41.98	-45.49	-49.55	-54.62	-61.01	-68.81	-77.69	-86.71	-94.25	-98.26	-96.77	-88.63	-74	-54.42	-32.33	-10.29
-89.18	-92.73	-91.1	-83.22	-69.22	-50.41	-28.98	-7.4	12.2	28.44	40.75	49.24	54.41	56.82	57.03	55.54	52.94	49.96	47.33	45.67	45.19	45.65	46.44	46.86	46.45	45.19	43.37	41.4	39.52	37.66	35.51	32.71	29.07	24.64	19.72	14.69	9.89	5.5	1.5	-2.28	-6.16	-10.39	-15.12	-20.23	-25.45	-30.39	-34.76	-38.55	-41.98	-45.49	-49.55	-54.62	-61.01	-68.81	-77.69	-86.71	-94.25	-98.26	-96.77	-88.63	-74	-54.42	-32.33	-10.29	9.66	26.41	39.62	49.42	56.02	59.61	60.46	59.08	56.34	53.24	50.67	49.2	48.91	49.5	50.44	51.22	51.48	51.05	49.93	48.22	46.08	43.65	40.99	38.11	34.89	31.21	26.95	22.14	16.95	11.71	6.78	2.39	-1.47	-5.05	-8.72	-12.79	-17.34	-22.23	-27.16	-31.89	-36.33	-40.54	-44.65	-48.76	-53.04	-57.75	-63.32	-70.12	-78.07	-86.3	-93.04	-96.05	-93.27	-83.71	-67.75	-47.18	-24.52	-2.29	17.6	34.11	46.89	56.01	61.71	64.29
9.66	26.41	39.62	49.42	56.02	59.61	60.46	59.08	56.34	53.24	50.67	49.2	48.91	49.5	50.44	51.22	51.48	51.05	49.93	48.22	46.08	43.65	40.99	38.11	34.89	31.21	26.95	22.14	16.95	11.71	6.78	2.39	-1.47	-5.05	-8.72	-12.79	-17.34	-22.23	-27.16	-31.89	-36.33	-40.54	-44.65	-48.76	-53.04	-57.75	-63.32	-70.12	-78.07	-86.3	-93.04	-96.05	-93.27	-83.71	-67.75	-47.18	-24.52	-2.29	17.6	34.11	46.89	56.01	61.71	64.29	64.19	62.11	58.99	55.81	53.38	52.07	51.81	52.15	52.56	52.61	52.12	51.12	49.8	48.31	46.73	45	42.94	40.34	37.02	32.91	28.11	22.89	17.66	12.77	8.46	4.76	1.52	-1.52	-4.65	-8.11	-12.06	-16.58	-21.6	-26.91	-32.17	-37	-41.2	-44.84	-48.31	-52.24	-57.25	-63.71	-71.51	-79.92	-87.61	-92.82	-93.73	-88.95	-77.94	-61.38	-40.99	-19.13	1.86	20.22	35.03	46.12	53.69	58.05	59.44	58.26	55.15	51.13	47.34	44.74
64.19	62.11	58.99	55.81	53.38	52.07	51.81	52.15	52.56	52.61	52.12	51.12	49.8	48.31	46.73	45	42.94	40.34	37.02	32.91	28.11	22.89	17.66	12.77	8.46	4.76	1.52	-1.52	-4.65	-8.11	-12.06	-16.58	-21.6	-26.91	-32.17	-37	-41.2	-44.84	-48.31	-52.24	-57.25	-63.71	-71.51	-79.92	-87.61	-92.82	-93.73	-88.95	-77.94	-61.38	-40.99	-19.13	1.86	20.22	35.03	46.12	53.69	58.05	59.44	58.26	55.15	51.13	47.34	44.74	43.74	44.11	45.16	46.08	46.33	45.81	44.73	43.44	42.06	40.48	38.41	35.56	31.88	27.52	22.8	18	13.34	8.93	4.84	1.07	-2.41	-5.78	-9.35	-13.39	-18.11	-23.38	-28.87	-34.09	-38.65	-42.43	-45.6	-48.59	-52	-56.39	-62.18	-69.37	-77.31	-84.61	-89.36	-89.5	-83.62	-71.44	-54.01	-33.44	-12.23	7.46	24.27	37.66	47.6	54.27	57.85	58.58	56.92	53.69	49.92	46.66	44.62	44	44.5	45.52	46.47	46.98	46.91	46.28
43.74	44.11	45.16	46.08	46.33	45.81	44.73	43.44	42.06	40.48	38.41	35.56	31.88	27.52	22.8	18	13.34	8.93	4.84	1.07	-2.41	-5.78	-9.35	-13.39	-18.11	-23.38	-28.87	-34.09	-38.65	-42.43	-45.6	-48.59	-52	-56.39	-62.18	-69.37	-77.31	-84.61	-89.36	-89.5	-83.62	-71.44	-54.01	-33.44	-12.23	7.46	24.27	37.66	47.6	54.27	57.85	58.58	56.92	53.69	49.92	46.66	44.62	44	44.5	45.52	46.47	46.98	46.91	46.28	45.16	43.57	41.45	38.76	35.49	31.63	27.22	22.37	17.25	12.13	7.32	3.11	-0.42	-3.43	-6.32	-9.56	-13.46	-18.05	-23.05	-28	-32.52	-36.46	-39.9	-43.17	-46.66	-50.76	-55.81	-62	-69.25	-76.94	-83.81	-88.1	-87.93	-81.94	-69.9	-52.86	-32.87	-12.36	6.64	22.9	35.95	45.87	52.85	57.05	58.65	57.99	55.63	52.33	48.88	45.91	43.79	42.6	42.18	42.22	42.31	42.05	41.2	39.69	37.65	35.26	32.66	29.81	26.59	22.92
45.16	43.57	41.45	38.76	35.49	31.63	27.22	22.37	17.25	12.13	7.32	3.11	-0.42	-3.43	-6.32	-9.56	-13.46	-18.05	-23.05	-28	-32.52	-36.46	-39.9	-43.17	-46.66	-50.76	-55.81	-62	-69.25	-76.94	-83.81	-88.1	-87.93	-81.94	-69.9	-52.86	-32.87	-12.36	6.64	22.9	35.95	45.87	52.85	57.05	58.65	57.99	55.63	52.33	48.88	45.91	43.79	42.6	42.18	42.22	42.31	42.05	41.2	39.69	37.65	35.26	32.66	29.81	26.59	22.92	18.82	14.51	10.24	6.25	2.6	-0.82	-4.19	-7.69	-11.4	-15.35	-19.46	-23.65	-27.8	-31.76	-35.43	-38.78	-41.95	-45.16	-48.79	-53.23	-58.86	-65.81	-73.78	-81.89	-88.66	-92.28	-91.01	-83.83	-70.78	-53.08	-32.78	-12.24	6.55	22.25	34.36	42.96	48.43	51.24	51.86	50.8	48.63	46.02	43.62	41.96	41.25	41.39	42	42.65	43	42.89	42.33	41.37	40.01	38.15	35.67	32.58	29.07	25.38	21.74	18.25	14.77	11.15	7.34	3.47
18.82	14.51	10.24	6.25	2.6	-0.82	-4.19	-7.69	-11.4	-15.35	-19.46	-23.65	-27.8	-31.76	-35.43	-38.78	-41.95	-45.16	-48.79	-53.23	-58.86	-65.81	-73.78	-81.89	-88.66	-92.28	-91.01	-83.83	-70.78	-53.08	-32.78	-12.24	6.55	22.25	34.36	42.96	48.43	51.24	51.86	50.8	48.63	46.02	43.62	41.96	41.25	41.39	42	42.65	43	42.89	42.33	41.37	40.01	38.15	35.67	32.58	29.07	25.38	21.74	18.25	14.77	11.15	7.34	3.47	-0.21	-3.52	-6.5	-9.48	-12.91	-17.07	-21.95	-27.15	-32.14	-36.51	-40.18	-43.46	-46.81	-50.76	-55.68	-61.83	-69.22	-77.52	-85.78	-92.41	-95.42	-92.99	-84.16	-69.25	-49.91	-28.63	-7.95	10.24	24.96	36.06	43.91	48.98	51.65	52.28	51.26	49.16	46.67	44.53	43.26	43.08	43.79	44.93	45.98	46.58	46.63	46.27	45.69	44.97	44.01	42.56	40.39	37.4	33.71	29.6	25.41	21.37	17.52	13.8	10.04	6.17	2.23	-1.67	-5.45	-9.08
-0.21	-3.52	-6.5	-9.48	-12.91	-17.07	-21.95	-27.15	-32.14	-36.51	-40.18	-43.46	-46.81	-50.76	-55.68	-61.83	-69.22	-77.52	-85.78	-92.41	-95.42	-92.99	-84.16	-69.25	-49.91	-28.63	-7.95	10.24	24.96	36.06	43.91	48.98	51.65	52.28	51.26	49.16	46.67	44.53	43.26	43.08	43.79	44.93	45.98	46.58	46.63	46.27	45.69	44.97	44.01	42.56	40.39	37.4	33.71	29.6	25.41	21.37	17.52	13.8	10.04	6.17	2.23	-1.67	-5.45	-9.08	-12.69	-16.47	-20.48	-24.67	-28.84	-32.77	-36.38	-39.82	-43.48	-47.87	-53.47	-60.53	-68.83	-77.58	-85.36	-90.34	-90.72	-85.23	-73.62	-56.92	-37.13	-16.72	2.06	17.75	29.77	38.22	43.49	45.98	46.08	44.29	41.34	38.18	35.74	34.62	34.91	36.2	37.85	39.33	40.35	40.92	41.14	41.05	40.57	39.56	37.87	35.47	32.45	28.94	25.07	20.97	16.8	12.75	9.03	5.78	2.97	0.39	-2.31	-5.43	-9.14	-13.34	-17.77	-22.11	-26.12	-29.69
-12.69	-16.47	-20.48	-24.67	-28.84	-32.77	-36.38	-39.82	-43.48	-47.87	-53.47	-60.53	-68.83	-77.58	-85.36	-90.34	-90.72	-85.23	-73.62	-56.92	-37.13	-16.72	2.06	17.75	29.77	38.22	43.49	45.98	46.08	44.29	41.34	38.18	35.74	34.62	34.91	36.2	37.85	39.33	40.35	40.92	41.14	41.05	40.57	39.56	37.87	35.47	32.45	28.94	25.07	20.97	16.8	12.75	9.03	5.78	2.97	0.39	-2.31	-5.43	-9.14	-13.34	-17.77	-22.11	-26.12	-29.69	-32.91	-35.9	-38.93	-42.35	-46.64	-52.19	-59.11	-66.78	-73.83	-78.29	-78.16	-72.13	-60.16	-43.55	-24.52	-5.5	11.58	25.64	36.33	43.74	48.02	49.31	47.9	44.45	40.01	35.79	32.75	31.34	31.34	32.12	32.95	33.4	33.35	32.96	32.48	32.04	31.54	30.76	29.41	27.24	24.16	20.15	15.43	10.32	5.31	0.85	-2.77	-5.61	-8.05	-10.68	-14.03	-18.3	-23.25	-28.3	-32.86	-36.58	-39.53	-42.16	-45.06	-48.84	-53.91	-60.34	-67.74	-75.1
-32.91	-35.9	-38.93	-42.35	-46.64	-52.19	-59.11	-66.78	-73.83	-78.29	-78.16	-72.13	-60.16	-43.55	-24.52	-5.5	11.58	25.64	36.33	43.74	48.02	49.31	47.9	44.45	40.01	35.79	32.75	31.34	31.34	32.12	32.95	33.4	33.35	32.96	32.48	32.04	31.54	30.76	29.41	27.24	24.16	20.15	15.43	10.32	5.31	0.85	-2.77	-5.61	-8.05	-10.68	-14.03	-18.3	-23.25	-28.3	-32.86	-36.58	-39.53	-42.16	-45.06	-48.84	-53.91	-60.34	-67.74	-75.1	-80.89	-83.29	-80.75	-72.5	-58.92	-41.5	-22.31	-3.47	13.36	27.19	37.53	44.3	47.67	48.02	46.09	42.83	39.3	36.35	34.5	33.83	34.11	34.93	35.92	36.8	37.4	37.6	37.32	36.5	35.12	33.12	30.49	27.16	23.13	18.5	13.51	8.51	3.84	-0.32	-4.12	-7.92	-12.2	-17.24	-22.98	-28.99	-34.69	-39.59	-43.55	-46.81	-49.94	-53.65	-58.6	-65.12	-73.01	-81.27	-88.25	-91.86	-90.19	-82.16	-67.96	-49.09	-27.89	-6.83	12.13	27.85
-80.89	-83.29	-80.75	-72.5	-58.92	-41.5	-22.31	-3.47	13.36	27.19	37.53	44.3	47.67	48.02	46.09	42.83	39.3	36.35	34.5	33.83	34.11	34.93	35.92	36.8	37.4	37.6	37.32	36.5	35.12	33.12	30.49	27.16	23.13	18.5	13.51	8.51	3.84	-0.32	-4.12	-7.92	-12.2	-17.24	-22.98	-28.99	-34.69	-39.59	-43.55	-46.81	-49.94	-53.65	-58.6	-65.12	-73.01	-81.27	-88.25	-91.86	-90.19	-82.16	-67.96	-49.09	-27.89	-6.83	12.13	27.85	39.99	48.64	54.11	56.72	56.85	55.04	52.02	48.66	45.76	43.9	43.28	43.72	44.79	46.02	47	47.52	47.55	47.05	46.02	44.33	41.87	38.56	34.43	29.59	24.29	18.84	13.62	8.95	5.01	1.66	-1.54	-5.16	-9.63	-15.04	-21	-26.83	-31.94	-36.03	-39.28	-42.17	-45.35	-49.44	-54.91	-62.02	-70.56	-79.62	-87.51	-91.99	-90.95	-83.15	-68.75	-49.42	-27.73	-6.36	12.64	28.25	40.24	48.83	54.3	56.85	56.75	54.5	50.99	47.28
39.99	48.64	54.11	56.72	56.85	55.04	52.02	48.66	45.76	43.9	43.28	43.72	44.79	46.02	47	47.52	47.55	47.05	46.02	44.33	41.87	38.56	34.43	29.59	24.29	18.84	13.62	8.95	5.01	1.66	-1.54	-5.16	-9.63	-15.04	-21	-26.83	-31.94	-36.03	-39.28	-42.17	-45.35	-49.44	-54.91	-62.02	-70.56	-79.62	-87.51	-91.99	-90.95	-83.15	-68.75	-49.42	-27.73	-6.36	12.64	28.25	40.24	48.83	54.3	56.85	56.75	54.5	50.99	47.28	44.35	42.79	42.66	43.56	44.89	46.07	46.76	46.85	46.41	45.53	44.28	42.65	40.52	37.75	34.18	29.79	24.67	19.12	13.56	8.47	4.12	0.54	-2.59	-5.78	-9.55	-14.17	-19.56	-25.27	-30.72	-35.4	-39.13	-42.1	-44.88	-48.2	-52.74	-59	-66.98	-76.07	-84.93	-91.6	-93.92	-90.14	-79.54	-62.79	-41.82	-19.32	2.1	20.45	34.7	44.71	50.92	53.98	54.62	53.5	51.29	48.64	46.13	44.21	43.15	42.95	43.41	44.16	44.82	45.08
44.35	42.79	42.66	43.56	44.89	46.07	46.76	46.85	46.41	45.53	44.28	42.65	40.52	37.75	34.18	29.79	24.67	19.12	13.56	8.47	4.12	0.54	-2.59	-5.78	-9.55	-14.17	-19.56	-25.27	-30.72	-35.4	-39.13	-42.1	-44.88	-48.2	-52.74	-59	-66.98	-76.07	-84.93	-91.6	-93.92	-90.14	-79.54	-62.79	-41.82	-19.32	2.1	20.45	34.7	44.71	50.92	53.98	54.62	53.5	51.29	48.64	46.13	44.21	43.15	42.95	43.41	44.16	44.82	45.08	44.8	44.01	42.8	41.26	39.32	36.83	33.56	29.41	24.49	19.17	13.91	9.15	5.1	1.71	-1.27	-4.25	-7.55	-11.37	-15.74	-20.51	-25.45	-30.29	-34.83	-38.96	-42.8	-46.66	-51.01	-56.43	-63.37	-71.87	-81.37	-90.58	-97.6	-100.36	-97.08	-87.02	-70.63	-49.61	-26.46	-3.79	16.28	32.45	44.26	51.89	55.85	56.7	55.1	51.8	47.67	43.68	40.67	39.19	39.27	40.54	42.32	43.96	45.02	45.37	45.13	44.45	43.37	41.78	39.45	36.17
44.8	44.01	42.8	41.26	39.32	36.83	33.56	29.41	24.49	19.17	13.91	9.15	5.1	1.71	-1.27	-4.25	-7.55	-11.37	-15.74	-20.51	-25.45	-30.29	-34.83	-38.96	-42.8	-46.66	-51.01	-56.43	-63.37	-71.87	-81.37	-90.58	-97.6	-100.36	-97.08	-87.02	-70.63	-49.61	-26.46	-3.79	16.28	32.45	44.26	51.89	55.85	56.7	55.1	51.8	47.67	43.68	40.67	39.19	39.27	40.54	42.32	43.96	45.02	45.37	45.13	44.45	43.37	41.78	39.45	36.17	31.9	26.83	21.36	16.03	11.26	7.26	3.95	0.96	-2.15	-5.77	-9.99	-14.63	-19.24	-23.35	-26.61	-29.02	-30.9	-32.85	-35.62	-39.9	-46.04	-53.85	-62.41	-70.08	-74.88	-74.93	-69.06	-57.19	-40.39	-20.58	-0.03	19.25	35.83	48.95	58.42	64.41	67.29	67.57	65.84	62.76	59	55.18	51.68	48.69	46.12	43.67	41.02	37.99	34.61	31.15	27.92	25.14	22.74	20.45	17.95	15.04	11.74	8.29	4.98	1.98	-0.79	-3.53	-6.57	-10.15
31.9	26.83	21.36	16.03	11.26	7.26	3.95	0.96	-2.15	-5.77	-9.99	-14.63	-19.24	-23.35	-26.61	-29.02	-30.9	-32.85	-35.62	-39.9	-46.04	-53.85	-62.41	-70.08	-74.88	-74.93	-69.06	-57.19	-40.39	-20.58	-0.03	19.25	35.83	48.95	58.42	64.41	67.29	67.57	65.84	62.76	59	55.18	51.68	48.69	46.12	43.67	41.02	37.99	34.61	31.15	27.92	25.14	22.74	20.45	17.95	15.04	11.74	8.29	4.98	1.98	-0.79	-3.53	-6.57	-10.15	-14.37	-19.15	-24.26	-29.36	-34.1	-38.25	-41.76	-44.82	-47.87	-51.48	-56.17	-62.09	-68.82	-75.27	-79.78	-80.63	-76.53	-67.09	-53.03	-35.97	-17.99	-1.07	13.32	24.31	31.62	35.29	35.62	33.04	28.16	21.8	14.89	8.35	2.94	-0.87	-2.92	-3.32	-2.39	-0.6	1.5	3.37	4.46	4.37	2.8	-0.37	-5.08	-11.13	-18.14	-25.53	-32.6	-38.62	-42.92	-45.12	-45.18	-43.46	-40.69	-37.86	-36.06	-36.37	-39.64	-46.28	-55.99	-67.57	-78.87	-87.05
-14.37	-19.15	-24.26	-29.36	-34.1	-38.25	-41.76	-44.82	-47.87	-51.48	-56.17	-62.09	-68.82	-75.27	-79.78	-80.63	-76.53	-67.09	-53.03	-35.97	-17.99	-1.07	13.32	24.31	31.62	35.29	35.62	33.04	28.16	21.8	14.89	8.35	2.94	-0.87	-2.92	-3.32	-2.39	-0.6	1.5	3.37	4.46	4.37	2.8	-0.37	-5.08	-11.13	-18.14	-25.53	-32.6	-38.62	-42.92	-45.12	-45.18	-43.46	-40.69	-37.86	-36.06	-36.37	-39.64	-46.28	-55.99	-67.57	-78.87	-87.05	-89.24	-83.34	-68.84	-47.17	-21.35	4.8	27.77	45.23	56.32	61.51	62.08	59.69	56.06	52.91	51.69	53.39	58.25	65.58	73.89	81.17	85.42	85.11	79.53	68.95	54.55	38.15	21.75	7.17	-4.42	-12.55	-17.44	-19.72	-20.15	-19.5	-18.53	-18.07	-19.02	-22.28	-28.58	-38.23	-51.15	-66.8	-84.31	-102.41	-119.25	-132.39	-138.93	-136.19	-122.5	-98.05	-65.2	-28.07	8.44	39.96	63.65	78.59	85.59	86.54	83.68	79.1	74.51	71.27	70.41	72.59
-89.24	-83.34	-68.84	-47.17	-21.35	4.8	27.77	45.23	56.32	61.51	62.08	59.69	56.06	52.91	51.69	53.39	58.25	65.58	73.89	81.17	85.42	85.11	79.53	68.95	54.55	38.15	21.75	7.17	-4.42	-12.55	-17.44	-19.72	-20.15	-19.5	-18.53	-18.07	-19.02	-22.28	-28.58	-38.23	-51.15	-66.8	-84.31	-102.41	-119.25	-132.39	-138.93	-136.19	-122.5	-98.05	-65.2	-28.07	8.44	39.96	63.65	78.59	85.59	86.54	83.68	79.1	74.51	71.27	70.41	72.59	77.88	85.56	94.02	101.01	104.23	102.12	94.44	82.42	68.22	54.17	41.89	31.92	24.05	17.81	13.11	10.37	10.11	12.35	16.2	19.89	21.33	18.82	11.61	-0.07	-15.16	-32.17	-49.25	-64.3	-75.06	-79.37	-75.7	-63.65	-44.2	-19.61	7.08	32.67	54.4	70.32	79.46	81.86	78.36	70.42	59.8	48.19	37	27.13	19.01	12.7	8.09	5.08	3.73	4.12	6.17	9.44	13.05	15.84	16.74	15.04	10.62	3.86	-4.57	-13.97	-23.69	-33.18
77.88	85.56	94.02	101.01	104.23	102.12	94.44	82.42	68.22	54.17	41.89	31.92	24.05	17.81	13.11	10.37	10.11	12.35	16.2	19.89	21.33	18.82	11.61	-0.07	-15.16	-32.17	-49.25	-64.3	-75.06	-79.37	-75.7	-63.65	-44.2	-19.61	7.08	32.67	54.4	70.32	79.46	81.86	78.36	70.42	59.8	48.19	37	27.13	19.01	12.7	8.09	5.08	3.73	4.12	6.17	9.44	13.05	15.84	16.74	15.04	10.62	3.86	-4.57	-13.97	-23.69	-33.18	-41.96	-49.58	-55.55	-59.3	-60.12	-57.21	-49.93	-38.12	-22.46	-4.46	13.8	30.27	43.39	52.34	57.02	57.77	55.22	50.23	43.96	37.71	32.73	29.81	28.96	29.4	29.91	29.33	27.06	23.29	18.79	14.44	10.65	6.97	2.27	-4.75	-14.6	-26.43	-37.98	-46.3	-48.93	-44.96	-35.42	-22.94	-10.69	-1.37	3.56	4.04	1.13	-3.5	-8.05	-10.94	-11.08	-8.03	-2	6.21	15.38	24.16	31.31	35.83	37.14	35.07	30	22.85	14.93	7.75
-41.96	-49.58	-55.55	-59.3	-60.12	-57.21	-49.93	-38.12	-22.46	-4.46	13.8	30.27	43.39	52.34	57.02	57.77	55.22	50.23	43.96	37.71	32.73	29.81	28.96	29.4	29.91	29.33	27.06	23.29	18.79	14.44	10.65	6.97	2.27	-4.75	-14.6	-26.43	-37.98	-46.3	-48.93	-44.96	-35.42	-22.94	-10.69	-1.37	3.56	4.04	1.13	-3.5	-8.05	-10.94	-11.08	-8.03	-2	6.21	15.38	24.16	31.31	35.83	37.14	35.07	30	22.85	14.93	7.75	2.61	0.23	0.62	3.09	6.57	10.01	12.7	14.34	14.92	14.5	13.04	10.42	6.62	1.86	-3.42	-8.73	-13.76	-18.62	-23.75	-29.73	-36.87	-44.97	-53.19	-60.16	-64.37	-64.58	-60.24	-51.62	-39.9	-26.77	-14.03	-3.13	5.07	10.33	12.83	12.88	10.81	6.92	1.69	-4.17	-9.7	-13.91	-16.14	-16.26	-14.77	-12.55	-10.52	-9.33	-9.16	-9.87	-11.17	-12.84	-14.9	-17.48	-20.68	-24.55	-29.08	-34.33	-40.42	-47.27	-54.34	-60.43	-63.78	-62.66
2.61	0.23	0.62	3.09	6.57	10.01	12.7	14.34	14.92	14.5	13.04	10.42	6.62	1.86	-3.42	-8.73	-13.76	-18.62	-23.75	-29.73	-36.87	-44.97	-53.19	-60.16	-64.37	-64.58	-60.24	-51.62	-39.9	-26.77	-14.03	-3.13	5.07	10.33	12.83	12.88	10.81	6.92	1.69	-4.17	-9.7	-13.91	-16.14	-16.26	-14.77	-12.55	-10.52	-9.33	-9.16	-9.87	-11.17	-12.84	-14.9	-17.48	-20.68	-24.55	-29.08	-34.33	-40.42	-47.27	-54.34	-60.43	-63.78	-62.66	-56.02	-44.03	-28.04	-10.26	7.06	22.14	33.99	42.29	47.13	48.7	47.3	43.37	37.55	30.73	23.93	18	13.51	10.54	8.7	7.37	5.86	3.72	0.87	-2.47	-5.92	-9.2	-12.25	-15.25	-18.56	-22.53	-27.41	-33.29	-40.13	-47.62	-55.1	-61.48	-65.31	-65.09	-59.78	-49.22	-34.41	-17.26	-0.06	15.19	27.33	36.08	41.75	44.83	45.65	44.33	40.99	36.07	30.35	24.86	20.46	17.59	16.11	15.45	14.88	13.78	11.72	8.54	4.22	-1.06
-56.02	-44.03	-28.04	-10.26	7.06	22.14	33.99	42.29	47.13	48.7	47.3	43.37	37.55	30.73	23.93	18	13.51	10.54	8.7	7.37	5.86	3.72	0.87	-2.47	-5.92	-9.2	-12.25	-15.25	-18.56	-22.53	-27.41	-33.29	-40.13	-47.62	-55.1	-61.48	-65.31	-65.09	-59.78	-49.22	-34.41	-17.26	-0.06	15.19	27.33	36.08	41.75	44.83	45.65	44.33	40.99	36.07	30.35	24.86	20.46	17.59	16.11	15.45	14.88	13.78	11.72	8.54	4.22	-1.06	-7.01	-13.25	-19.4	-25.28	-30.97	-36.81	-43.19	-50.33	-58	-65.32	-70.86	-73	-70.31	-62.06	-48.52	-30.98	-11.37	8.12	25.6	39.82	50.22	56.81	59.94	60.09	57.85	53.84	48.74	43.22	37.94	33.42	30.03	27.83	26.64	25.93	25.02	23.24	20.19	15.87	10.65	5.06	-0.43	-5.7	-10.81	-15.94	-21.23	-26.81	-32.93	-39.96	-48.24	-57.58	-66.94	-74.4	-77.71	-75.05	-65.85	-50.98	-32.46	-12.74	6	22.27	35.28	44.78	50.87	53.9
-7.01	-13.25	-19.4	-25.28	-30.97	-36.81	-43.19	-50.33	-58	-65.32	-70.86	-73	-70.31	-62.06	-48.52	-30.98	-11.37	8.12	25.6	39.82	50.22	56.81	59.94	60.09	57.85	53.84	48.74	43.22	37.94	33.42	30.03	27.83	26.64	25.93	25.02	23.24	20.19	15.87	10.65	5.06	-0.43	-5.7	-10.81	-15.94	-21.23	-26.81	-32.93	-39.96	-48.24	-57.58	-66.94	-74.4	-77.71	-75.05	-65.85	-50.98	-32.46	-12.74	6	22.27	35.28	44.78	50.87	53.9	54.45	53.33	51.34	49.2	47.37	46.07	45.22	44.63	43.97	42.83	40.82	37.7	33.57	28.86	24.2	20.06	16.56	13.33	9.64	4.85	-1.26	-8.32	-15.48	-21.86	-26.87	-30.54	-33.43	-36.37	-40.19	-45.47	-52.43	-60.77	-69.69	-77.81	-83.27	-84.2	-79.21	-67.97	-51.41	-31.52	-10.76	8.68	25.36	38.65	48.48	55.02	58.47	59.1	57.46	54.32	50.67	47.38	44.99	43.57	42.87	42.51	42.2	41.77	41.2	40.46	39.43	37.96	35.86	32.97
54.45	53.33	51.34	49.2	47.37	46.07	45.22	44.63	43.97	42.83	40.82	37.7	33.57	28.86	24.2	20.06	16.56	13.33	9.64	4.85	-1.26	-8.32	-15.48	-21.86	-26.87	-30.54	-33.43	-36.37	-40.19	-45.47	-52.43	-60.77	-69.69	-77.81	-83.27	-84.2	-79.21	-67.97	-51.41	-31.52	-10.76	8.68	25.36	38.65	48.48	55.02	58.47	59.1	57.46	54.32	50.67	47.38	44.99	43.57	42.87	42.51	42.2	41.77	41.2	40.46	39.43	37.96	35.86	32.97	29.23	24.76	19.84	14.9	10.38	6.53	3.28	0.23	-3.26	-7.74	-13.4	-19.94	-26.7	-32.87	-37.9	-41.66	-44.56	-47.36	-50.91	-55.9	-62.53	-70.36	-78.19	-84.3	-86.71	-83.82	-74.87	-60.29	-41.64	-21.14	-1.09	16.76	31.37	42.47	50.17	54.8	56.69	56.27	54.15	51.11	48.02	45.61	44.25	43.93	44.27	44.77	44.99	44.72	43.91	42.62	40.89	38.7	35.98	32.7	28.89	24.67	20.25	15.81	11.54	7.56	3.97	0.75	-2.29	-5.44
29.23	24.76	19.84	14.9	10.38	6.53	3.28	0.23	-3.26	-7.74	-13.4	-19.94	-26.7	-32.87	-37.9	-41.66	-44.56	-47.36	-50.91	-55.9	-62.53	-70.36	-78.19	-84.3	-86.71	-83.82	-74.87	-60.29	-41.64	-21.14	-1.09	16.76	31.37	42.47	50.17	54.8	56.69	56.27	54.15	51.11	48.02	45.61	44.25	43.93	44.27	44.77	44.99	44.72	43.91	42.62	40.89	38.7	35.98	32.7	28.89	24.67	20.25	15.81	11.54	7.56	3.97	0.75	-2.29	-5.44	-9.09	-13.43	-18.4	-23.63	-28.59	-32.87	-36.37	-39.34	-42.23	-45.57	-49.81	-55.28	-62.11	-70.06	-78.34	-85.52	-89.69	-89.01	-82.35	-69.8	-52.68	-33.14	-13.47	4.52	19.8	31.98	41.04	47.09	50.28	50.91	49.53	46.97	44.14	41.82	40.47	40.21	40.83	41.96	43.15	44.02	44.26	43.71	42.38	40.41	37.98	35.24	32.26	28.99	25.35	21.36	17.12	12.88	8.89	5.32	2.11	-0.98	-4.31	-8.19	-12.7	-17.64	-22.66	-27.37	-31.53	-35.12
-9.09	-13.43	-18.4	-23.63	-28.59	-32.87	-36.37	-39.34	-42.23	-45.57	-49.81	-55.28	-62.11	-70.06	-78.34	-85.52	-89.69	-89.01	-82.35	-69.8	-52.68	-33.14	-13.47	4.52	19.8	31.98	41.04	47.09	50.28	50.91	49.53	46.97	44.14	41.82	40.47	40.21	40.83	41.96	43.15	44.02	44.26	43.71	42.38	40.41	37.98	35.24	32.26	28.99	25.35	21.36	17.12	12.88	8.89	5.32	2.11	-0.98	-4.31	-8.19	-12.7	-17.64	-22.66	-27.37	-31.53	-35.12	-38.3	-41.39	-44.79	-48.99	-54.41	-61.19	-68.94	-76.53	-82.19	-84.04	-80.63	-71.48	-57.29	-39.66	-20.59	-1.94	14.85	28.86	39.6	46.86	50.73	51.63	50.27	47.63	44.71	42.31	40.87	40.41	40.66	41.2	41.68	41.87	41.68	41.11	40.14	38.79	37.02	34.84	32.29	29.46	26.46	23.41	20.43	17.53	14.65	11.64	8.39	4.91	1.36	-1.98	-4.84	-7.14	-9.09	-11.09	-13.58	-16.83	-20.77	-25.03	-29.17	-32.8	-35.81	-38.37	-40.93	-44.04
-38.3	-41.39	-44.79	-48.99	-54.41	-61.19	-68.94	-76.53	-82.19	-84.04	-80.63	-71.48	-57.29	-39.66	-20.59	-1.94	14.85	28.86	39.6	46.86	50.73	51.63	50.27	47.63	44.71	42.31	40.87	40.41	40.66	41.2	41.68	41.87	41.68	41.11	40.14	38.79	37.02	34.84	32.29	29.46	26.46	23.41	20.43	17.53	14.65	11.64	8.39	4.91	1.36	-1.98	-4.84	-7.14	-9.09	-11.09	-13.58	-16.83	-20.77	-25.03	-29.17	-32.8	-35.81	-38.37	-40.93	-44.04	-48.24	-53.89	-60.98	-68.95	-76.59	-82.16	-83.72	-79.77	-69.74	-54.37	-35.5	-15.58	3.08	18.83	30.91	39.3	44.45	46.92	47.32	46.28	44.47	42.61	41.28	40.82	41.16	41.95	42.64	42.75	42.14	40.95	39.59	38.45	37.66	37.06	36.19	34.6	32.06	28.73	25.09	21.71	18.97	16.9	15.14	13.16	10.54	7.14	3.2	-0.86	-4.6	-7.76	-10.43	-12.91	-15.61	-18.83	-22.69	-27.05	-31.61	-36.05	-40.15	-43.82	-47.16	-50.42	-54	-58.38
-48.24	-53.89	-60.98	-68.95	-76.59	-82.16	-83.72	-79.77	-69.74	-54.37	-35.5	-15.58	3.08	18.83	30.91	39.3	44.45	46.92	47.32	46.28	44.47	42.61	41.28	40.82	41.16	41.95	42.64	42.75	42.14	40.95	39.59	38.45	37.66	37.06	36.19	34.6	32.06	28.73	25.09	21.71	18.97	16.9	15.14	13.16	10.54	7.14	3.2	-0.86	-4.6	-7.76	-10.43	-12.91	-15.61	-18.83	-22.69	-27.05	-31.61	-36.05	-40.15	-43.82	-47.16	-50.42	-54	-58.38	-63.92	-70.62	-77.85	-84.23	-87.92	-87.09	-80.61	-68.49	-51.98	-33.13	-14.16	3.15	17.73	29.24	37.71	43.33	46.28	46.87	45.65	43.43	41.11	39.43	38.69	38.69	38.93	38.91	38.38	37.53	36.71	36.28	36.29	36.44	36.18	34.99	32.67	29.38	25.62	22.05	19.24	17.53	16.94	17.19	17.8	18.27	18.19	17.31	15.54	12.92	9.56	5.59	1.14	-3.67	-8.71	-13.86	-19.04	-24.16	-29.24	-34.33	-39.57	-45.07	-50.92	-57.1	-63.52	-69.91
-63.92	-70.62	-77.85	-84.23	-87.92	-87.09	-80.61	-68.49	-51.98	-33.13	-14.16	3.15	17.73	29.24	37.71	43.33	46.28	46.87	45.65	43.43	41.11	39.43	38.69	38.69	38.93	38.91	38.38	37.53	36.71	36.28	36.29	36.44	36.18	34.99	32.67	29.38	25.62	22.05	19.24	17.53	16.94	17.19	17.8	18.27	18.19	17.31	15.54	12.92	9.56	5.59	1.14	-3.67	-8.71	-13.86	-19.04	-24.16	-29.24	-34.33	-39.57	-45.07	-50.92	-57.1	-63.52	-69.91	-75.79	-80.44	-82.89	-82.1	-77.25	-68.04	-54.98	-39.33	-22.84	-7.18	6.44	17.48	25.93	31.97	35.79	37.48	37.2	35.32	32.44	29.34	26.7	24.97	24.27	24.46	25.27	26.44	27.7	28.87	29.72	30.13	29.96	29.2	27.89	26.11	23.94	21.43	18.63	15.55	12.24	8.78	5.28	1.84	-1.47	-4.69	-7.94	-11.4	-15.17	-19.29	-23.71	-28.28	-32.87	-37.34	-41.71	-46.02	-50.48	-55.37	-60.97	-67.34	-74.12	-80.37	-84.69	-85.5	-81.61	-72.68
-75.79	-80.44	-82.89	-82.1	-77.25	-68.04	-54.98	-39.33	-22.84	-7.18	6.44	17.48	25.93	31.97	35.79	37.48	37.2	35.32	32.44	29.34	26.7	24.97	24.27	24.46	25.27	26.44	27.7	28.87	29.72	30.13	29.96	29.2	27.89	26.11	23.94	21.43	18.63	15.55	12.24	8.78	5.28	1.84	-1.47	-4.69	-7.94	-11.4	-15.17	-19.29	-23.71	-28.28	-32.87	-37.34	-41.71	-46.02	-50.48	-55.37	-60.97	-67.34	-74.12	-80.37	-84.69	-85.5	-81.61	-72.68	-59.33	-43.01	-25.5	-8.48	6.89	19.99	30.61	38.76	44.5	47.91	49.12	48.44	46.38	43.61	40.93	39.01	38.28	38.75	40.04	41.54	42.66	43.02	42.57	41.48	39.97	38.17	36.03	33.45	30.36	26.85	23.13	19.44	15.92	12.56	9.26	5.86	2.32	-1.39	-5.26	-9.37	-13.88	-18.93	-24.54	-30.47	-36.28	-41.47	-45.65	-48.82	-51.33	-53.88	-57.21	-61.73	-67.24	-72.78	-76.81	-77.64	-73.98	-65.37	-52.36	-36.32	-19	-2.09	13.06	25.64
-59.33	-43.01	-25.5	-8.48	6.89	19.99	30.61	38.76	44.5	47.91	49.12	48.44	46.38	43.61	40.93	39.01	38.28	38.75	40.04	41.54	42.66	43.02	42.57	41.48	39.97	38.17	36.03	33.45	30.36	26.85	23.13	19.44	15.92	12.56	9.26	5.86	2.32	-1.39	-5.26	-9.37	-13.88	-18.93	-24.54	-30.47	-36.28	-41.47	-45.65	-48.82	-51.33	-53.88	-57.21	-61.73	-67.24	-72.78	-76.81	-77.64	-73.98	-65.37	-52.36	-36.32	-19	-2.09	13.06	25.64	35.27	41.85	45.57	46.81	46.18	44.41	42.3	40.52	39.5	39.31	39.72	40.31	40.72	40.77	40.49	40.04	39.59	39.1	38.42	37.31	35.6	33.28	30.47	27.33	23.98	20.45	16.73	12.85	8.94	5.2	1.83	-1.04	-3.49	-5.75	-8.14	-11.01	-14.54	-18.74	-23.4	-28.17	-32.73	-36.85	-40.54	-44.06	-47.9	-52.6	-58.54	-65.69	-73.36	-80.27	-84.66	-84.83	-79.65	-68.93	-53.58	-35.3	-16.2	1.81	17.35	29.7	38.71	44.58	47.71	48.59
35.27	41.85	45.57	46.81	46.18	44.41	42.3	40.52	39.5	39.31	39.72	40.31	40.72	40.77	40.49	40.04	39.59	39.1	38.42	37.31	35.6	33.28	30.47	27.33	23.98	20.45	16.73	12.85	8.94	5.2	1.83	-1.04	-3.49	-5.75	-8.14	-11.01	-14.54	-18.74	-23.4	-28.17	-32.73	-36.85	-40.54	-44.06	-47.9	-52.6	-58.54	-65.69	-73.36	-80.27	-84.66	-84.83	-79.65	-68.93	-53.58	-35.3	-16.2	1.81	17.35	29.7	38.71	44.58	47.71	48.59	47.78	45.96	43.76	41.78	40.42	39.8	39.83	40.21	40.61	40.79	40.65	40.22	39.58	38.77	37.7	36.2	34.12	31.45	28.34	25.02	21.74	18.58	15.53	12.47	9.34	6.21	3.18	0.34	-2.31	-4.92	-7.71	-10.85	-14.33	-18.05	-21.81	-25.39	-28.69	-31.68	-34.39	-36.9	-39.47	-42.54	-46.7	-52.46	-59.88	-68.18	-75.71	-80.29	-79.92	-73.53	-61.41	-45.05	-26.7	-8.53	7.82	21.47	32.07	39.62	44.24	46.18	45.91	44.13	41.65	39.21
47.78	45.96	43.76	41.78	40.42	39.8	39.83	40.21	40.61	40.79	40.65	40.22	39.58	38.77	37.7	36.2	34.12	31.45	28.34	25.02	21.74	18.58	15.53	12.47	9.34	6.21	3.18	0.34	-2.31	-4.92	-7.71	-10.85	-14.33	-18.05	-21.81	-25.39	-28.69	-31.68	-34.39	-36.9	-39.47	-42.54	-46.7	-52.46	-59.88	-68.18	-75.71	-80.29	-79.92	-73.53	-61.41	-45.05	-26.7	-8.53	7.82	21.47	32.07	39.62	44.24	46.18	45.91	44.13	41.65	39.21	37.35	36.29	36.05	36.49	37.44	38.65	39.85	40.75	41.1	40.8	39.88	38.49	36.74	34.66	32.21	29.34	26.13	22.77	19.5	16.43	13.51	10.58	7.46	4.17	0.81	-2.52	-5.88	-9.53	-13.75	-18.61	-23.9	-29.11	-33.76	-37.61	-40.85	-43.92	-47.41	-51.82	-57.48	-64.44	-72.32	-80.13	-86.29	-88.84	-86.02	-76.94	-62.04	-43.03	-22.46	-2.82	14.08	27.46	37.33	44.14	48.31	50.16	49.95	48.14	45.42	42.71	40.82	40.18	40.78	42.16
37.35	36.29	36.05	36.49	37.44	38.65	39.85	40.75	41.1	40.8	39.88	38.49	36.74	34.66	32.21	29.34	26.13	22.77	19.5	16.43	13.51	10.58	7.46	4.17	0.81	-2.52	-5.88	-9.53	-13.75	-18.61	-23.9	-29.11	-33.76	-37.61	-40.85	-43.92	-47.41	-51.82	-57.48	-64.44	-72.32	-80.13	-86.29	-88.84	-86.02	-76.94	-62.04	-43.03	-22.46	-2.82	14.08	27.46	37.33	44.14	48.31	50.16	49.95	48.14	45.42	42.71	40.82	40.18	40.78	42.16	43.68	44.84	45.41	45.46	45.18	44.63	43.71	42.19	39.89	36.83	33.23	29.39	25.59	21.91	18.32	14.74	11.16	7.65	4.28	1.05	-2.17	-5.54	-9.19	-13.16	-17.37	-21.73	-26.14	-30.44	-34.44	-38.01	-41.14	-44.04	-47.23	-51.4	-57.12	-64.56	-73.19	-81.7	-88.23	-90.77	-87.79	-78.66	-63.91	-45.12	-24.52	-4.4	13.39	27.68	38.11	44.88	48.54	49.77	49.25	47.61	45.47	43.4	41.9	41.29	41.62	42.62	43.87	44.94	45.57	45.71
43.68	44.84	45.41	45.46	45.18	44.63	43.71	42.19	39.89	36.83	33.23	29.39	25.59	21.91	18.32	14.74	11.16	7.65	4.28	1.05	-2.17	-5.54	-9.19	-13.16	-17.37	-21.73	-26.14	-30.44	-34.44	-38.01	-41.14	-44.04	-47.23	-51.4	-57.12	-64.56	-73.19	-81.7	-88.23	-90.77	-87.79	-78.66	-63.91	-45.12	-24.52	-4.4	13.39	27.68	38.11	44.88	48.54	49.77	49.25	47.61	45.47	43.4	41.9	41.29	41.62	42.62	43.87	44.94	45.57	45.71	45.48	44.93	44.03	42.62	40.53	37.7	34.25	30.45	26.54	22.68	18.89	15.11	11.3	7.51	3.89	0.59	-2.39	-5.21	-8.23	-11.83	-16.21	-21.3	-26.68	-31.86	-36.44	-40.35	-43.84	-47.45	-51.75	-57.21	-64.02	-71.9	-80.03	-86.98	-90.94	-90.13	-83.43	-70.76	-53.3	-33.15	-12.7	6.01	21.66	33.71	42.19	47.36	49.56	49.26	47.05	43.72	40.09	36.96	34.89	34.13	34.6	35.99	37.81	39.57	40.87	41.46	41.27	40.34	38.79	36.71
45.48	44.93	44.03	42.62	40.53	37.7	34.25	30.45	26.54	22.68	18.89	15.11	11.3	7.51	3.89	0.59	-2.39	-5.21	-8.23	-11.83	-16.21	-21.3	-26.68	-31.86	-36.44	-40.35	-43.84	-47.45	-51.75	-57.21	-64.02	-71.9	-80.03	-86.98	-90.94	-90.13	-83.43	-70.76	-53.3	-33.15	-12.7	6.01	21.66	33.71	42.19	47.36	49.56	49.26	47.05	43.72	40.09	36.96	34.89	34.13	34.6	35.99	37.81	39.57	40.87	41.46	41.27	40.34	38.79	36.71	34.15	31.12	27.6	23.6	19.18	14.53	9.91	5.62	1.92	-1.15	-3.82	-6.49	-9.6	-13.37	-17.76	-22.51	-27.28	-31.84	-36.11	-40.12	-44	-47.93	-52.23	-57.36	-63.74	-71.44	-79.8	-87.26	-91.71	-91.02	-83.9	-70.34	-51.76	-30.56	-9.35	9.74	25.44	37.37	45.69	50.75	52.93	52.62	50.38	47	43.45	40.64	39.14	39.02	39.94	41.34	42.68	43.58	43.87	43.6	42.83	41.65	40.11	38.22	35.93	33.2	30.03	26.41	22.4	18.14
34.15	31.12	27.6	23.6	19.18	14.53	9.91	5.62	1.92	-1.15	-3.82	-6.49	-9.6	-13.37	-17.76	-22.51	-27.28	-31.84	-36.11	-40.12	-44	-47.93	-52.23	-57.36	-63.74	-71.44	-79.8	-87.26	-91.71	-91.02	-83.9	-70.34	-51.76	-30.56	-9.35	9.74	25.44	37.37	45.69	50.75	52.93	52.62	50.38	47	43.45	40.64	39.14	39.02	39.94	41.34	42.68	43.58	43.87	43.6	42.83	41.65	40.11	38.22	35.93	33.2	30.03	26.41	22.4	18.14	13.79	9.55	5.6	2.02	-1.27	-4.5	-8	-12.08	-16.9	-22.34	-28.07	-33.7	-38.96	-43.8	-48.37	-52.96	-57.94	-63.65	-70.35	-78.04	-86.2	-93.56	-98.26	-98.24	-91.94	-78.94	-60.3	-38.33	-15.76	4.94	22.31	35.84	45.74	52.39	56.05	56.96	55.49	52.4	48.77	45.74	44.08	44	45.12	46.74	48.22	49.19	49.55	49.38	48.77	47.75	46.28	44.3	41.77	38.69	35.08	30.94	26.35	21.5	16.71	12.27	8.37	4.92	1.57	-2.14
13.79	9.55	5.6	2.02	-1.27	-4.5	-8	-12.08	-16.9	-22.34	-28.07	-33.7	-38.96	-43.8	-48.37	-52.96	-57.94	-63.65	-70.35	-78.04	-86.2	-93.56	-98.26	-98.24	-91.94	-78.94	-60.3	-38.33	-15.76	4.94	22.31	35.84	45.74	52.39	56.05	56.96	55.49	52.4	48.77	45.74	44.08	44	45.12	46.74	48.22	49.19	49.55	49.38	48.77	47.75	46.28	44.3	41.77	38.69	35.08	30.94	26.35	21.5	16.71	12.27	8.37	4.92	1.57	-2.14	-6.57	-11.78	-17.49	-23.27	-28.73	-33.7	-38.29	-42.75	-47.35	-52.34	-57.94	-64.46	-72.09	-80.65	-89.23	-96.13	-99.1	-96.1	-86.09	-69.53	-48.34	-25.29	-3.14	16.15	31.59	43.11	51.09	56.02	58.33	58.49	57.11	54.89	52.58	50.73	49.6	49.16	49.19	49.41	49.62	49.73	49.73	49.61	49.32	48.72	47.63	45.9	43.5	40.56	37.32	34.06	30.95	27.99	24.97	21.65	17.85	13.57	9.03	4.49	0.16	-3.97	-8.11	-12.56	-17.57	-23.16
-6.57	-11.78	-17.49	-23.27	-28.73	-33.7	-38.29	-42.75	-47.35	-52.34	-57.94	-64.46	-72.09	-80.65	-89.23	-96.13	-99.1	-96.1	-86.09	-69.53	-48.34	-25.29	-3.14	16.15	31.59	43.11	51.09	56.02	58.33	58.49	57.11	54.89	52.58	50.73	49.6	49.16	49.19	49.41	49.62	49.73	49.73	49.61	49.32	48.72	47.63	45.9	43.5	40.56	37.32	34.06	30.95	27.99	24.97	21.65	17.85	13.57	9.03	4.49	0.16	-3.97	-8.11	-12.56	-17.57	-23.16	-29.1	-35.03	-40.61	-45.66	-50.23	-54.65	-59.39	-65	-71.93	-80.26	-89.45	-98.13	-104.19	-105.28	-99.56	-86.45	-67.01	-43.73	-19.75	2.14	20.17	33.85	43.63	50.25	54.34	56.23	56.14	54.4	51.66	48.71	46.27	44.75	44.16	44.21	44.49	44.63	44.43	43.77	42.58	40.76	38.28	35.15	31.54	27.76	24.07	20.66	17.48	14.31	10.89	7.06	2.94	-1.09	-4.45	-6.58	-7.2	-6.48	-5.03	-3.8	-3.78	-5.64	-9.53	-15.08	-21.67	-28.69
-29.1	-35.03	-40.61	-45.66	-50.23	-54.65	-59.39	-65	-71.93	-80.26	-89.45	-98.13	-104.19	-105.28	-99.56	-86.45	-67.01	-43.73	-19.75	2.14	20.17	33.85	43.63	50.25	54.34	56.23	56.14	54.4	51.66	48.71	46.27	44.75	44.16	44.21	44.49	44.63	44.43	43.77	42.58	40.76	38.28	35.15	31.54	27.76	24.07	20.66	17.48	14.31	10.89	7.06	2.94	-1.09	-4.45	-6.58	-7.2	-6.48	-5.03	-3.8	-3.78	-5.64	-9.53	-15.08	-21.67	-28.69	-35.88	-43.41	-51.65	-60.86	-70.79	-80.41	-87.96	-91.34	-88.67	-78.95	-62.6	-41.36	-17.91	4.95	24.98	40.96	52.63	60.35	64.69	66.2	65.36	62.73	59.02	55.06	51.72	49.57	48.8	49.16	49.99	50.44	49.71	47.29	43.12	37.57	31.33	25.13	19.57	14.93	11.25	8.33	5.99	4	2.24	0.61	-0.98	-2.65	-4.57	-6.9	-9.83	-13.5	-17.94	-22.94	-28.11	-32.98	-37.22	-40.87	-44.47	-48.83	-54.8	-62.93	-73.28	-85.38	-98.29	-110.59
-35.88	-43.41	-51.65	-60.86	-70.79	-80.41	-87.96	-91.34	-88.67	-78.95	-62.6	-41.36	-17.91	4.95	24.98	40.96	52.63	60.35	64.69	66.2	65.36	62.73	59.02	55.06	51.72	49.57	48.8	49.16	49.99	50.44	49.71	47.29	43.12	37.57	31.33	25.13	19.57	14.93	11.25	8.33	5.99	4	2.24	0.61	-0.98	-2.65	-4.57	-6.9	-9.83	-13.5	-17.94	-22.94	-28.11	-32.98	-37.22	-40.87	-44.47	-48.83	-54.8	-62.93	-73.28	-85.38	-98.29	-110.59	-120.48	-125.98	-125.33	-117.48	-102.67	-82.47	-59.44	-36.37	-15.45	2.14	16.22	27.21	35.55	41.51	45.18	46.79	46.9	46.43	46.41	47.6	50.21	53.86	57.76	61.13	63.45	64.57	64.54	63.47	61.33	58.01	53.47	47.87	41.6	35.14	28.81	22.6	16.29	9.65	2.67	-4.24	-10.47	-15.44	-18.97	-21.27	-22.95	-24.61	-26.69	-29.3	-32.29	-35.49	-38.79	-42.21	-45.88	-50.02	-54.89	-60.8	-67.92	-75.99	-83.97	-89.91	-91.33	-85.96	-72.64	-51.97
-120.48	-125.98	-125.33	-117.48	-102.67	-82.47	-59.44	-36.37	-15.45	2.14	16.22	27.21	35.55	41.51	45.18	46.79	46.9	46.43	46.41	47.6	50.21	53.86	57.76	61.13	63.45	64.57	64.54	63.47	61.33	58.01	53.47	47.87	41.6	35.14	28.81	22.6	16.29	9.65	2.67	-4.24	-10.47	-15.44	-18.97	-21.27	-22.95	-24.61	-26.69	-29.3	-32.29	-35.49	-38.79	-42.21	-45.88	-50.02	-54.89	-60.8	-67.92	-75.99	-83.97	-89.91	-91.33	-85.96	-72.64	-51.97	-26.29	0.93	26.22	47.02	62.15	71.73	76.65	78.05	76.98	74.31	70.88	67.47	64.76	63.16	62.7	63.01	63.51	63.57	62.78	61.02	58.37	55.02	51.13	46.7	41.58	35.53	28.39	20.18	11.2	2.06	-6.53	-13.88	-19.54	-23.52	-26.23	-28.46	-31.15	-35.05	-40.5	-47.23	-54.5	-61.24	-66.44	-69.45	-70.21	-69.26	-67.63	-66.65	-67.6	-71.31	-77.78	-85.88	-93.36	-97.37	-95.22	-85.37	-68.04	-45.19	-19.93	4.49	25.66	42.51	55.25	64.81
-26.29	0.93	26.22	47.02	62.15	71.73	76.65	78.05	76.98	74.31	70.88	67.47	64.76	63.16	62.7	63.01	63.51	63.57	62.78	61.02	58.37	55.02	51.13	46.7	41.58	35.53	28.39	20.18	11.2	2.06	-6.53	-13.88	-19.54	-23.52	-26.23	-28.46	-31.15	-35.05	-40.5	-47.23	-54.5	-61.24	-66.44	-69.45	-70.21	-69.26	-67.63	-66.65	-67.6	-71.31	-77.78	-85.88	-93.36	-97.37	-95.22	-85.37	-68.04	-45.19	-19.93	4.49	25.66	42.51	55.25	64.81	72.23	78.14	82.75	86	87.86	88.42	87.91	86.54	84.34	81.13	76.7	70.98	64.22	56.95	49.84	43.41	37.86	33.05	28.63	24.22	19.59	14.66	9.48	4.02	-1.82	-8.17	-15.06	-22.24	-29.21	-35.33	-40.11	-43.5	-45.94	-48.39	-52.05	-57.98	-66.64	-77.46	-88.67	-97.51	-100.91	-96.46	-83.24	-62.29	-36.3	-8.78	16.99	38.7	55.35	66.87	73.64	76.11	74.74	70.12	63.21	55.39	48.17	42.84	40.11	39.86	41.37	43.56	45.44	46.34
72.23	78.14	82.75	86	87.86	88.42	87.91	86.54	84.34	81.13	76.7	70.98	64.22	56.95	49.84	43.41	37.86	33.05	28.63	24.22	19.59	14.66	9.48	4.02	-1.82	-8.17	-15.06	-22.24	-29.21	-35.33	-40.11	-43.5	-45.94	-48.39	-52.05	-57.98	-66.64	-77.46	-88.67	-97.51	-100.91	-96.46	-83.24	-62.29	-36.3	-8.78	16.99	38.7	55.35	66.87	73.64	76.11	74.74	70.12	63.21	55.39	48.17	42.84	40.11	39.86	41.37	43.56	45.44	46.34	46.11	44.91	43.06	40.73	37.83	34.07	29.03	22.42	14.25	4.94	-4.79	-14.07	-22.14	-28.52	-33.24	-36.67	-39.46	-42.38	-46.11	-51.11	-57.37	-64.23	-70.27	-73.63	-72.42	-65.43	-52.64	-35.34	-15.73	3.75	21.11	35.14	45.42	51.97	54.98	54.73	51.69	46.63	40.71	35.17	31.07	28.9	28.46	29.05	29.72	29.66	28.45	26.15	23.15	19.96	16.99	14.28	11.58	8.36	4.15	-1.23	-7.61	-14.48	-21.26	-27.52	-33.12	-38.29	-43.37	-48.82
46.11	44.91	43.06	40.73	37.83	34.07	29.03	22.42	14.25	4.94	-4.79	-14.07	-22.14	-28.52	-33.24	-36.67	-39.46	-42.38	-46.11	-51.11	-57.37	-64.23	-70.27	-73.63	-72.42	-65.43	-52.64	-35.34	-15.73	3.75	21.11	35.14	45.42	51.97	54.98	54.73	51.69	46.63	40.71	35.17	31.07	28.9	28.46	29.05	29.72	29.66	28.45	26.15	23.15	19.96	16.99	14.28	11.58	8.36	4.15	-1.23	-7.61	-14.48	-21.26	-27.52	-33.12	-38.29	-43.37	-48.82	-55.02	-62.29	-70.7	-79.85	-88.63	-95.25	-97.54	-93.64	-82.7	-65.33	-43.48	-19.87	2.8	22.54	38.28	49.75	57.1	60.63	60.68	57.75	52.6	46.26	39.87	34.39	30.42	28.07	26.98	26.54	26.1	25.12	23.36	20.87	17.92	14.83	11.74	8.53	4.84	0.2	-5.68	-12.73	-20.52	-28.38	-35.67	-42.01	-47.41	-52.15	-56.73	-61.7	-67.53	-74.45	-82.23	-90	-96.19	-98.78	-95.82	-86.04	-69.42	-47.3	-22.12	3.33	26.57	45.98	60.86	71.16
-55.02	-62.29	-70.7	-79.85	-88.63	-95.25	-97.54	-93.64	-82.7	-65.33	-43.48	-19.87	2.8	22.54	38.28	49.75	57.1	60.63	60.68	57.75	52.6	46.26	39.87	34.39	30.42	28.07	26.98	26.54	26.1	25.12	23.36	20.87	17.92	14.83	11.74	8.53	4.84	0.2	-5.68	-12.73	-20.52	-28.38	-35.67	-42.01	-47.41	-52.15	-56.73	-61.7	-67.53	-74.45	-82.23	-90	-96.19	-98.78	-95.82	-86.04	-69.42	-47.3	-22.12	3.33	26.57	45.98	60.86	71.16	77.17	79.31	78.08	74.2	68.68	62.73	57.46	53.65	51.54	50.85	51.09	51.76	52.49	53.09	53.36	53.02	51.62	48.78	44.29	38.23	31.03	23.27	15.43	7.69	-0.09	-8.23	-16.98	-26.31	-35.83	-44.94	-52.97	-59.48	-64.4	-68.07	-71.26	-75	-80.32	-87.81	-97.07	-106.5	-113.51	-115.24	-109.59	-96.04	-75.93	-51.95	-27.22	-4.36	15.03	30.36	41.59	48.83	52.22	52.05	49	44.28	39.37	35.57	33.57	33.25	33.83	34.29	33.83	32.24
77.17	79.31	78.08	74.2	68.68	62.73	57.46	53.65	51.54	50.85	51.09	51.76	52.49	53.09	53.36	53.02	51.62	48.78	44.29	38.23	31.03	23.27	15.43	7.69	-0.09	-8.23	-16.98	-26.31	-35.83	-44.94	-52.97	-59.48	-64.4	-68.07	-71.26	-75	-80.32	-87.81	-97.07	-106.5	-113.51	-115.24	-109.59	-96.04	-75.93	-51.95	-27.22	-4.36	15.03	30.36	41.59	48.83	52.22	52.05	49	44.28	39.37	35.57	33.57	33.25	33.83	34.29	33.83	32.24	29.93	27.73	26.49	26.78	28.6	31.42	34.31	36.31	36.76	35.5	32.85	29.23	24.91	19.78	13.49	5.8	-2.99	-11.94	-19.68	-25.04	-27.52	-27.61	-26.62	-26.24	-28.18	-33.76	-43.68	-57.67	-74.1	-89.83	-100.64	-102.27	-91.93	-69.5	-37.87	-2.18	31.85	59.54	78.29	87.63	88.54	82.63	71.7	57.65	42.7	29.29	19.79	15.92	18.27	26.14	37.7	50.58	62.37	71.06	75.32	74.6	69.08	59.65	47.76	35.17	23.65	14.69	9.22	7.39
29.93	27.73	26.49	26.78	28.6	31.42	34.31	36.31	36.76	35.5	32.85	29.23	24.91	19.78	13.49	5.8	-2.99	-11.94	-19.68	-25.04	-27.52	-27.61	-26.62	-26.24	-28.18	-33.76	-43.68	-57.67	-74.1	-89.83	-100.64	-102.27	-91.93	-69.5	-37.87	-2.18	31.85	59.54	78.29	87.63	88.54	82.63	71.7	57.65	42.7	29.29	19.79	15.92	18.27	26.14	37.7	50.58	62.37	71.06	75.32	74.6	69.08	59.65	47.76	35.17	23.65	14.69	9.22	7.39	8.62	11.75	15.28	17.76	18.07	15.58	10.27	2.55	-6.91	-17.42	-28.45	-39.75	-51.24	-62.88	-74.34	-84.7	-92.4	-95.47	-91.99	-80.85	-62.26	-37.82	-10.22	17.45	42.44	62.8	77.44	86.09	88.93	86.57	79.87	70.05	58.49	46.57	35.48	25.98	18.47	12.98	9.4	7.51	7.06	7.73	9.14	10.84	12.29	12.89	12.07	9.36	4.53	-2.24	-10.4	-19.07	-27.28	-34.2	-39.36	-42.66	-44.4	-45.14	-45.55	-46.24	-47.45	-48.91	-49.72	-48.59
8.62	11.75	15.28	17.76	18.07	15.58	10.27	2.55	-6.91	-17.42	-28.45	-39.75	-51.24	-62.88	-74.34	-84.7	-92.4	-95.47	-91.99	-80.85	-62.26	-37.82	-10.22	17.45	42.44	62.8	77.44	86.09	88.93	86.57	79.87	70.05	58.49	46.57	35.48	25.98	18.47	12.98	9.4	7.51	7.06	7.73	9.14	10.84	12.29	12.89	12.07	9.36	4.53	-2.24	-10.4	-19.07	-27.28	-34.2	-39.36	-42.66	-44.4	-45.14	-45.55	-46.24	-47.45	-48.91	-49.72	-48.59	-44.27	-36.07	-24.26	-10.08	4.62	18.01	28.73	36.21	40.47	41.87	40.78	37.5	32.4	26.13	19.63	14.05	10.33	8.89	9.49	11.25	13.1	14.16	14	12.73	10.82	8.83	7.11	5.72	4.48	3.07	1.15	-1.44	-4.77	-8.71	-13.1	-17.71	-22.41	-27.15	-32.02	-37.19	-42.88	-49.31	-56.52	-64.22	-71.66	-77.58	-80.39	-78.58	-71.22	-58.38	-41.22	-21.75	-2.25	15.27	29.44	39.67	45.88	48.33	47.39	43.54	37.54	30.43	23.44	17.74
-44.27	-36.07	-24.26	-10.08	4.62	18.01	28.73	36.21	40.47	41.87	40.78	37.5	32.4	26.13	19.63	14.05	10.33	8.89	9.49	11.25	13.1	14.16	14	12.73	10.82	8.83	7.11	5.72	4.48	3.07	1.15	-1.44	-4.77	-8.71	-13.1	-17.71	-22.41	-27.15	-32.02	-37.19	-42.88	-49.31	-56.52	-64.22	-71.66	-77.58	-80.39	-78.58	-71.22	-58.38	-41.22	-21.75	-2.25	15.27	29.44	39.67	45.88	48.33	47.39	43.54	37.54	30.43	23.44	17.74	14.08	12.55	12.58	13.26	13.69	13.36	12.29	10.85	9.43	8.17	6.79	4.8	1.68	-2.78	-8.36	-14.56	-20.74	-26.4	-31.38	-35.77	-39.93	-44.29	-49.34	-55.46	-62.68	-70.46	-77.51	-81.92	-81.66	-75.26	-62.46	-44.43	-23.39	-1.96	17.66	34.07	46.68	55.39	60.25	61.42	59.2	54.31	47.85	41.13	35.28	30.99	28.33	26.92	26.16	25.48	24.51	23.15	21.43	19.51	17.52	15.46	13.11	10.14	6.18	1.03	-5.13	-11.8	-18.25	-23.85
14.08	12.55	12.58	13.26	13.69	13.36	12.29	10.85	9.43	8.17	6.79	4.8	1.68	-2.78	-8.36	-14.56	-20.74	-26.4	-31.38	-35.77	-39.93	-44.29	-49.34	-55.46	-62.68	-70.46	-77.51	-81.92	-81.66	-75.26	-62.46	-44.43	-23.39	-1.96	17.66	34.07	46.68	55.39	60.25	61.42	59.2	54.31	47.85	41.13	35.28	30.99	28.33	26.92	26.16	25.48	24.51	23.15	21.43	19.51	17.52	15.46	13.11	10.14	6.18	1.03	-5.13	-11.8	-18.25	-23.85	-28.37	-32.09	-35.66	-39.95	-45.64	-53.04	-61.86	-71.12	-79.22	-84.14	-83.92	-77.22	-63.86	-44.98	-22.83	-0.19	20.41	37.23	49.49	57.25	61.03	61.47	59.2	54.85	49.12	42.82	36.85	32.03	28.89	27.61	27.94	29.36	31.2	32.85	33.84	33.87	32.77	30.51	27.13	22.77	17.64	11.91	5.74	-0.71	-7.24	-13.55	-19.27	-24.05	-27.68	-30.25	-32.16	-33.99	-36.44	-40.2	-45.79	-53.39	-62.54	-71.97	-79.65	-83.21	-80.71	-71.34	-55.79	-36.06
-28.37	-32.09	-35.66	-39.95	-45.64	-53.04	-61.86	-71.12	-79.22	-84.14	-83.92	-77.22	-63.86	-44.98	-22.83	-0.19	20.41	37.23	49.49	57.25	61.03	61.47	59.2	54.85	49.12	42.82	36.85	32.03	28.89	27.61	27.94	29.36	31.2	32.85	33.84	33.87	32.77	30.51	27.13	22.77	17.64	11.91	5.74	-0.71	-7.24	-13.55	-19.27	-24.05	-27.68	-30.25	-32.16	-33.99	-36.44	-40.2	-45.79	-53.39	-62.54	-71.97	-79.65	-83.21	-80.71	-71.34	-55.79	-36.06	-14.79	5.49	23.02	36.94	47.08	53.64	56.92	57.22	55.05	51.14	46.47	42.04	38.62	36.49	35.43	34.94	34.43	33.58	32.43	31.23	30.22	29.43	28.63	27.39	25.36	22.38	18.58	14.28	9.84	5.54	1.49	-2.38	-6.31	-10.59	-15.4	-20.7	-26.2	-31.41	-35.82	-39.21	-41.74	-44.02	-46.89	-51.23	-57.46	-65.39	-73.98	-81.45	-85.72	-84.83	-77.67	-64.3	-46.02	-25.01	-3.76	15.58	31.57	43.57	51.58	55.96	57.24	56.06	53.06	48.96
-14.79	5.49	23.02	36.94	47.08	53.64	56.92	57.22	55.05	51.14	46.47	42.04	38.62	36.49	35.43	34.94	34.43	33.58	32.43	31.23	30.22	29.43	28.63	27.39	25.36	22.38	18.58	14.28	9.84	5.54	1.49	-2.38	-6.31	-10.59	-15.4	-20.7	-26.2	-31.41	-35.82	-39.21	-41.74	-44.02	-46.89	-51.23	-57.46	-65.39	-73.98	-81.45	-85.72	-84.83	-77.67	-64.3	-46.02	-25.01	-3.76	15.58	31.57	43.57	51.58	55.96	57.24	56.06	53.06	48.96	44.52	40.51	37.56	36.05	35.99	37	38.45	39.66	40.17	39.86	38.9	37.53	35.9	33.97	31.61	28.76	25.5	22.02	18.53	15.08	11.63	8.1	4.49	0.78	-3.05	-7.1	-11.53	-16.42	-21.63	-26.78	-31.42	-35.2	-38.08	-40.37	-42.6	-45.43	-49.38	-54.78	-61.65	-69.55	-77.51	-84.01	-87.26	-85.56	-77.92	-64.42	-46.35	-25.91	-5.6	12.45	26.87	37.26	43.91	47.37	48.24	47.01	44.19	40.37	36.34	32.81	30.28	28.9	28.49	28.71
44.52	40.51	37.56	36.05	35.99	37	38.45	39.66	40.17	39.86	38.9	37.53	35.9	33.97	31.61	28.76	25.5	22.02	18.53	15.08	11.63	8.1	4.49	0.78	-3.05	-7.1	-11.53	-16.42	-21.63	-26.78	-31.42	-35.2	-38.08	-40.37	-42.6	-45.43	-49.38	-54.78	-61.65	-69.55	-77.51	-84.01	-87.26	-85.56	-77.92	-64.42	-46.35	-25.91	-5.6	12.45	26.87	37.26	43.91	47.37	48.24	47.01	44.19	40.37	36.34	32.81	30.28	28.9	28.49	28.71	29.25	29.97	30.77	31.54	32.02	31.92	30.95	29.01	26.19	22.74	18.86	14.65	10.16	5.42	0.63	-3.87	-7.75	-10.83	-13.27	-15.48	-18.02	-21.22	-25.07	-29.22	-33.18	-36.6	-39.44	-41.96	-44.59	-47.75	-51.8	-57.01	-63.56	-71.24	-79.29	-86.14	-89.68	-87.77	-79.1	-63.69	-43.12	-19.94	3.01	23.41	39.89	51.98	59.81	63.76	64.32	62.06	57.75	52.35	46.97	42.54	39.66	38.36	38.24	38.65	38.96	38.81	38.16	37.17	36.03	34.85
29.25	29.97	30.77	31.54	32.02	31.92	30.95	29.01	26.19	22.74	18.86	14.65	10.16	5.42	0.63	-3.87	-7.75	-10.83	-13.27	-15.48	-18.02	-21.22	-25.07	-29.22	-33.18	-36.6	-39.44	-41.96	-44.59	-47.75	-51.8	-57.01	-63.56	-71.24	-79.29	-86.14	-89.68	-87.77	-79.1	-63.69	-43.12	-19.94	3.01	23.41	39.89	51.98	59.81	63.76	64.32	62.06	57.75	52.35	46.97	42.54	39.66	38.36	38.24	38.65	38.96	38.81	38.16	37.17	36.03	34.85	33.57	32.07	30.23	28	25.44	22.66	19.78	16.86	13.93	10.92	7.79	4.5	1.1	-2.28	-5.55	-8.78	-12.22	-16.19	-20.91	-26.26	-31.78	-36.82	-40.87	-43.84	-46.2	-48.82	-52.66	-58.39	-66	-74.7	-82.98	-88.94	-90.69	-86.92	-77.22	-62.29	-43.71	-23.59	-4.03	13.25	27.2	37.42	44.01	47.39	48.1	46.83	44.29	41.27	38.57	36.83	36.4	37.17	38.73	40.53	42.09	43.2	43.89	44.25	44.28	43.82	42.64	40.59	37.65	34.01
33.57	32.07	30.23	28	25.44	22.66	19.78	16.86	13.93	10.92	7.79	4.5	1.1	-2.28	-5.55	-8.78	-12.22	-16.19	-20.91	-26.26	-31.78	-36.82	-40.87	-43.84	-46.2	-48.82	-52.66	-58.39	-66	-74.7	-82.98	-88.94	-90.69	-86.92	-77.22	-62.29	-43.71	-23.59	-4.03	13.25	27.2	37.42	44.01	47.39	48.1	46.83	44.29	41.27	38.57	36.83	36.4	37.17	38.73	40.53	42.09	43.2	43.89	44.25	44.28	43.82	42.64	40.59	37.65	34.01	29.91	25.59	21.2	16.87	12.68	8.74	5.1	1.69	-1.74	-5.49	-9.85	-14.84	-20.25	-25.59	-30.42	-34.51	-37.96	-41.16	-44.67	-48.99	-54.39	-60.91	-68.21	-75.5	-81.5	-84.59	-83.1	-75.91	-62.86	-45.05	-24.61	-4.08	14.31	29.18	40.09	47.24	51.09	52.1	50.72	47.53	43.4	39.38	36.43	35.11	35.42	36.89	38.85	40.71	42.06	42.74	42.73	42.04	40.75	38.91	36.66	34.12	31.3	28.16	24.59	20.58	16.25	11.91	7.9	4.45
