1678300035.00
64.000000
-0.00
-0.00
-0.00
-0.00
-0.00
-0.00
-0.00
-0.00
-0.00
-0.00
0.00
0.01
0.01
-0.00
-0.03
-0.05
-0.05
0.00
0.13
0.36
0.66
1.01
1.37
1.72
2.06
2.40
2.78
3.23
3.79
4.43
5.10
5.72
6.24
6.64
6.95
7.25
7.61
8.17
8.87
9.62
10.32
10.88
11.31
11.74
12.39
13.45
15.17
17.42
19.92
22.37
24.51
26.33
28.10
30.24
33.16
37.35
42.56
48.31
53.91
58.83
62.89
66.45
70.20
74.87
81.30
89.26
98.04
106.60
113.97
119.73
124.20
128.72
132.35
137.94
146.62
158.70
172.76
185.26
191.10
185.15
164.00
127.28
78.19
21.35
-38.49
-98.18
-156.69
-214.57
-272.86
-332.18
-392.19
-450.99
-505.76
-552.40
-586.04
-602.14
-597.72
-572.45
-528.72
-470.99
-404.13
-332.73
-260.27
-189.27
-121.77
-59.43
-3.49
45.57
87.96
124.49
155.77
182.04
203.09
218.46
227.88
231.60
230.44
225.71
218.78
210.73
202.13
193.04
183.20
172.39
160.60
148.14
135.54
123.39
112.10
101.89
92.70
84.31
76.38
68.63
60.85
53.01
45.26
37.82
30.90
24.68
19.17
14.28
9.97
6.05
2.41
-0.92
-3.84
-6.23
-8.05
-9.35
-10.28
-11.00
-11.60
-12.06
-12.30
-12.27
-12.01
-11.64
-11.28
-10.95
-10.58
-10.06
-9.29
-8.35
-7.42
-6.71
-6.36
-6.37
-6.56
-6.73
-6.80
-6.75
-6.66
-6.65
-6.75
-6.93
-7.10
-7.17
-7.11
-6.98
-6.89
-6.96
-7.25
-7.74
-8.37
-9.06
-9.73
-10.37
-10.97
-11.56
-12.09
-12.54
-12.90
-13.24
-13.63
-14.13
-14.74
-15.39
-15.97
-16.39
-16.57
-16.44
-15.95
-15.29
-14.51
-13.66
-12.74
-11.78
-10.79
-9.76
-8.73
-7.70
-6.68
-5.64
-4.57
-3.54
-2.61
-1.88
-1.38
-1.07
-0.78
-0.41
0.14
0.84
1.58
2.25
2.83
3.39
4.06
4.90
5.87
6.83
7.63
8.14
8.35
8.28
8.00
7.48
6.64
5.40
3.72
1.65
-0.63
-2.91
-5.01
-6.82
-8.30
-9.45
-10.27
-10.73
-10.79
-10.44
-9.70
-8.64
-7.34
-5.91
-4.45
-3.05
-1.77
-0.62
0.49
1.64
2.92
4.34
5.83
7.27
8.59
9.76
10.83
11.88
12.99
14.20
15.50
16.90
18.36
19.88
21.39
22.86
24.24
25.51
26.65
27.69
28.61
29.39
29.99
30.35
30.47
30.36
30.06
29.60
29.04
28.38
27.62
26.76
25.76
24.59
23.21
21.61
19.80
17.86
15.86
13.91
12.08
10.41
8.90
7.54
6.34
5.32
4.49
3.82
3.22
2.58
1.82
0.93
0.01
-0.84
-1.53
-2.01
-2.35
-2.63
-2.92
-3.25
-3.61
-3.95
-4.22
-4.39
-4.46
-4.44
-4.35
-4.20
-4.05
-3.90
-3.77
-3.67
-3.59
-3.51
-3.45
-3.43
-3.48
-3.63
-3.87
-4.15
-4.42
-4.67
-4.89
-5.13
-5.44
-5.82
-6.26
-6.69
-7.03
-7.16
-7.03
-6.59
-5.89
-5.03
-4.17
-3.47
-3.02
-2.83
-2.83
-2.89
-2.86
-2.66
-2.26
-1.73
-1.19
-0.76
-0.51
-0.47
-0.60
-0.83
-1.08
-1.31
-1.52
-1.75
-1.99
-2.22
-2.38
-2.40
-2.24
-1.94
-1.58
-1.30
-1.20
-1.29
-1.49
-1.64
-1.64
-1.48
-1.27
-1.20
-1.38
-1.81
-2.35
-2.82
-3.11
-3.20
-3.19
-3.17
-3.17
-3.14
-2.95
-2.57
-2.02
-1.43
-0.94
-0.59
-0.38
-0.25
-0.14
-0.05
0.01
0.04
0.04
0.07
0.09
0.09
-0.01
-0.22
-0.45
-0.61
-0.59
-0.34
0.05
0.47
0.82
1.02
1.06
0.93
0.65
0.24
-0.24
-0.66
-0.89
-0.85
-0.57
-0.19
0.07
0.02
-0.43
-1.20
-2.13
-2.96
-3.51
-3.65
-3.41
-2.88
-2.21
-1.52
-0.91
-0.41
-0.04
0.19
0.28
0.26
0.17
0.06
0.01
0.03
0.08
0.11
0.05
-0.10
-0.34
-0.60
-0.81
-0.89
-0.82
-0.59
-0.23
0.21
0.61
0.90
0.99
0.87
0.56
0.15
-0.31
-0.77
-1.23
-1.70
-2.17
-2.64
-3.06
-3.38
-3.59
-3.69
-3.71
-3.66
-3.55
-3.32
-2.94
-2.42
-1.77
-1.08
-0.43
0.10
0.44
0.55
0.43
0.13
-0.25
-0.57
-0.73
-0.68
-0.45
-0.12
0.20
0.48
0.69
0.84
0.94
0.94
0.82
0.61
0.36
0.17
0.12
0.23
0.43
0.64
0.77
0.79
0.74
0.66
0.60
0.58
0.57
0.51
0.36
0.09
-0.27
-0.65
-0.97
-1.14
-1.11
-0.88
-0.48
-0.01
0.43
0.77
0.96
1.03
1.01
0.96
0.85
0.67
0.37
-0.02
-0.40
-0.62
-0.62
-0.40
-0.08
0.21
0.37
0.40
0.37
0.35
0.39
0.44
0.46
0.41
0.29
0.15
0.03
-0.01
-0.00
0.03
0.02
-0.05
-0.20
-0.37
-0.51
-0.57
-0.55
-0.51
-0.56
-0.77
-1.12
-1.51
-1.79
-1.84
-1.63
-1.25
-0.84
-0.54
-0.36
-0.27
-0.15
0.06
0.34
0.58
0.66
0.54
0.26
-0.04
-0.23
-0.30
-0.30
-0.36
-0.53
-0.78
-0.96
-0.93
-0.65
-0.20
0.24
0.51
0.57
0.50
0.45
0.54
0.81
1.14
1.42
1.55
1.50
1.27
0.92
0.47
-0.06
-0.62
-1.18
-1.68
-2.09
-2.41
-2.64
-2.80
-2.86
-2.76
-2.46
-1.95
-1.32
-0.66
-0.09
0.32
0.56
0.65
0.66
0.64
0.62
0.62
0.62
0.60
0.57
0.53
0.50
0.50
0.54
0.58
0.61
0.59
0.55
0.51
0.51
0.55
0.62
0.63
0.56
0.37
0.11
-0.18
-0.44
-0.61
-0.67
-0.62
-0.50
-0.38
-0.37
-0.54
-0.92
-1.42
-1.90
-2.19
-2.24
-2.09
-1.88
-1.73
-1.64
-1.55
-1.32
-0.90
-0.33
0.27
0.75
1.07
1.26
1.38
1.48
1.51
1.40
1.10
0.69
0.31
0.13
0.25
0.62
1.09
1.46
1.60
1.47
1.15
0.76
0.39
0.05
-0.27
-0.55
-0.79
-0.93
-0.95
-0.88
-0.80
-0.81
-0.95
-1.22
-1.55
-1.86
-2.13
-2.36
-2.58
-2.79
-2.94
-2.96
-2.81
-2.51
-2.15
-1.82
-1.56
-1.29
-0.92
-0.39
0.27
0.94
1.43
1.61
1.48
1.11
0.69
0.41
0.38
0.62
1.04
1.45
1.69
1.65
1.30
0.73
0.04
-0.62
-1.18
-1.58
-1.77
-1.74
-1.52
-1.23
-1.02
-1.05
-1.39
-1.99
-2.71
-3.37
-3.90
-4.32
-4.71
-5.17
-5.70
-6.20
-6.53
-6.59
-6.35
-5.86
-5.22
-4.50
-3.70
-2.81
-1.78
-0.66
0.49
1.52
2.31
2.79
2.97
2.87
2.55
2.06
1.45
0.75
0.04
-0.64
-1.24
-1.76
-2.18
-2.46
-2.57
-2.44
-2.08
-1.52
-0.83
-0.09
0.65
1.36
2.05
2.70
3.27
3.70
4.01
4.22
4.38
4.53
4.66
4.72
4.67
4.48
4.13
3.68
3.16
2.65
2.23
1.95
1.82
1.78
1.77
1.74
1.67
1.62
1.66
1.82
2.08
2.38
2.63
2.78
2.82
2.74
2.55
2.26
1.88
1.40
0.82
0.13
-0.70
-1.65
-2.62
-3.45
-3.96
-4.04
-3.71
-3.09
-2.39
-1.80
-1.38
-1.11
-0.89
-0.62
-0.22
0.28
0.81
1.29
1.66
1.89
2.00
2.03
2.02
2.07
2.28
2.78
3.66
4.88
6.33
7.79
9.08
10.04
10.64
10.88
10.81
10.46
9.86
9.09
8.26
7.52
6.92
6.42
5.88
5.14
4.10
2.81
1.38
-0.02
-1.26
-2.33
-3.28
-4.21
-5.18
-6.22
-7.31
-8.42
-9.53
-10.64
-11.70
-12.60
-13.16
-13.22
-12.62
-11.35
-9.53
-7.40
-5.16
-3.00
-0.99
0.82
2.39
3.63
4.43
4.76
4.68
4.36
3.99
3.72
3.55
3.42
3.22
2.90
2.46
1.97
1.54
1.23
1.09
1.11
1.28
1.57
1.91
2.25
2.51
2.62
2.52
2.21
1.73
1.23
0.87
0.75
0.90
1.16
1.31
1.14
0.57
-0.30
-1.28
-2.20
-2.97
-3.62
-4.23
-4.86
-5.53
-6.18
-6.83
-7.51
-8.30
-9.25
-10.29
-11.23
-11.86
-12.01
-11.68
-11.00
-10.18
-9.40
-8.70
-8.02
-7.22
-6.18
-4.88
-3.38
-1.80
-0.20
1.40
3.00
4.59
6.11
7.44
8.48
9.20
9.62
9.81
9.81
9.64
9.29
8.76
8.11
7.45
6.90
6.56
6.44
6.47
6.50
6.39
6.04
5.42
4.62
3.78
3.03
2.48
2.12
1.92
1.80
1.71
1.63
1.56
1.49
1.37
1.13
0.73
0.20
-0.36
-0.87
-1.23
-1.46
-1.61
-1.76
-1.94
-2.09
-2.11
-1.98
-1.74
-1.51
-1.40
-1.46
-1.61
-1.72
-1.72
-1.62
-1.53
-1.55
-1.71
-1.91
-2.02
-1.95
-1.70
-1.36
-1.03
-0.73
-0.43
-0.06
0.43
0.98
1.51
1.89
2.10
2.16
2.18
2.27
2.49
2.82
3.21
3.58
3.87
4.10
4.28
4.46
4.69
4.96
5.26
5.55
5.83
6.07
6.29
6.49
6.65
6.72
6.64
6.37
5.87
5.17
4.30
3.26
2.03
0.53
-1.24
-3.21
-5.24
-7.13
-8.75
-10.08
-11.13
-11.92
-12.41
-12.54
-12.30
-11.75
-11.08
-10.46
-9.99
-9.65
-9.32
-8.87
-8.24
-7.47
-6.65
-5.89
-5.28
-4.87
-4.66
-4.60
-4.57
-4.45
-4.11
-3.57
-2.93
-2.39
-2.09
-2.10
-2.30
-2.53
-2.60
-2.40
-1.96
-1.34
-0.65
0.02
0.63
1.13
1.50
1.75
1.89
1.92
1.88
1.79
1.69
1.63
1.64
1.76
1.98
2.22
2.41
2.47
2.36
2.12
1.84
1.62
1.51
1.51
1.56
1.55
1.38
0.98
0.32
-0.54
-1.53
-2.53
-3.42
-4.15
-4.67
-5.01
-5.27
-5.54
-5.89
-6.32
-6.73
-6.96
-6.87
-6.36
-5.45
-4.25
-2.91
-1.58
-0.40
0.56
1.24
1.66
1.83
1.83
1.72
1.57
1.43
1.32
1.28
1.29
1.37
1.51
1.65
1.73
1.72
1.59
1.39
1.23
1.20
1.37
1.70
2.07
2.32
2.35
2.14
1.79
1.45
1.25
1.22
1.26
1.23
0.98
0.43
-0.35
-1.24
-2.08
-2.72
-3.07
-3.07
-2.75
-2.19
-1.48
-0.75
-0.07
0.51
1.01
1.45
1.79
2.00
2.04
1.92
1.73
1.58
1.56
1.66
1.78
1.80
1.67
1.45
1.23
1.08
1.04
1.02
0.97
0.84
0.64
0.41
0.21
0.04
-0.08
-0.13
-0.11
0.00
0.13
0.17
-0.01
-0.48
-1.20
-2.03
-2.77
-3.25
-3.40
-3.23
-2.86
-2.38
-1.82
-1.16
-0.41
0.40
1.18
1.84
2.35
2.77
3.21
3.76
4.37
4.90
5.18
5.12
4.79
4.36
4.01
3.81
3.68
3.50
3.17
2.71
2.25
1.96
1.92
2.09
2.33
2.48
2.41
2.08
1.53
0.84
0.10
-0.60
-1.20
-1.62
-1.88
-1.98
-2.02
-2.09
-2.27
-2.59
-3.00
-3.40
-3.70
-3.81
-3.74
-3.48
-3.04
-2.43
-1.64
-0.72
0.23
1.10
1.78
2.25
2.55
2.77
2.99
3.22
3.42
3.51
3.46
3.29
3.05
2.78
2.51
2.22
1.94
1.68
1.49
1.41
1.43
1.50
1.51
1.39
1.12
0.78
0.44
0.19
0.01
-0.19
-0.46
-0.82
-1.21
-1.54
-1.71
-1.74
-1.73
-1.81
-2.06
-2.46
-2.90
-3.19
-3.19
-2.86
-2.24
-1.43
-0.57
0.24
0.89
1.34
1.57
1.61
1.54
1.43
1.36
1.33
1.32
1.26
1.11
0.89
0.63
0.40
0.25
0.22
0.29
0.44
0.63
0.81
0.90
0.85
0.63
0.27
-0.16
-0.54
-0.76
-0.78
-0.62
-0.38
-0.16
-0.05
-0.11
-0.36
-0.77
-1.28
-1.78
-2.13
-2.22
-1.99
-1.46
-0.74
0.02
0.63
0.97
1.01
0.78
0.41
0.05
-0.18
-0.19
-0.00
0.31
0.61
0.79
0.83
0.73
0.58
0.45
0.36
0.30
0.24
0.15
0.03
-0.09
-0.19
-0.22
-0.20
-0.14
-0.06
0.05
0.19
0.37
0.54
0.65
0.58
0.29
-0.23
-0.89
-1.55
-2.11
-2.50
-2.74
-2.85
-2.86
-2.72
-2.40
-1.87
-1.19
-0.47
0.15
0.60
0.86
1.01
1.12
1.22
1.29
1.27
1.14
0.90
0.63
0.41
0.35
0.45
0.69
0.96
1.13
1.15
1.01
0.82
0.71
0.75
0.90
1.02
0.93
0.55
-0.06
-0.69
-1.14
-1.32
-1.29
-1.21
-1.19
-1.25
-1.29
-1.21
-1.01
-0.81
-0.79
-1.05
-1.57
-2.15
-2.58
-2.69
-2.46
-1.96
-1.32
-0.64
-0.00
0.55
0.99
1.28
1.43
1.44
1.35
1.19
1.02
0.90
0.84
0.87
0.94
0.97
0.92
0.76
0.53
0.32
0.22
0.27
0.45
0.68
0.87
0.95
0.89
0.72
0.51
0.32
0.19
0.15
0.16
0.16
0.10
-0.04
-0.22
-0.40
-0.53
-0.59
-0.60
-0.60
-0.65
-0.84
-1.22
-1.77
-2.40
-2.95
-3.24
-3.16
-2.74
-2.11
-1.49
-1.01
-0.71
-0.49
-0.23
0.17
0.67
1.18
1.58
1.78
1.77
1.62
1.39
1.17
1.01
0.94
0.95
1.03
1.15
1.27
1.36
1.39
1.33
1.19
1.00
0.80
0.64
0.55
0.54
0.55
0.50
0.37
0.15
-0.07
-0.23
-0.27
-0.21
-0.12
-0.09
-0.14
-0.24
-0.35
-0.47
-0.65
-0.96
-1.43
-1.99
-2.45
-2.65
-2.47
-1.95
-1.26
-0.57
-0.05
0.22
0.28
0.22
0.16
0.21
0.44
0.80
1.19
1.41
1.37
1.06
0.61
0.21
0.02
0.05
0.21
0.35
0.40
0.37
0.36
0.45
0.67
0.92
1.07
1.05
0.81
0.45
0.07
-0.21
-0.34
-0.36
-0.34
-0.37
-0.49
-0.68
-0.89
-1.04
-1.13
-1.15
-1.15
-1.17
-1.21
-1.27
-1.27
-1.20
-1.02
-0.73
-0.39
-0.04
0.28
0.54
0.71
0.82
0.90
0.95
0.97
0.97
0.99
1.06
1.21
1.41
1.58
1.62
1.49
1.20
0.86
0.59
0.45
0.46
0.52
0.58
0.56
0.46
0.27
0.01
-0.33
-0.71
-1.08
-1.37
-1.49
-1.43
-1.22
-0.96
-0.76
-0.67
-0.73
-0.89
-1.12
-1.38
-1.65
-1.88
-2.04
-2.06
-1.88
-1.51
-0.95
-0.30
0.35
0.93
1.39
1.72
1.95
2.09
2.14
2.09
1.92
1.64
1.28
0.90
0.58
0.39
0.38
0.56
0.86
1.18
1.42
1.49
1.36
1.08
0.72
0.35
0.05
-0.19
-0.39
-0.61
-0.87
-1.13
-1.29
-1.29
-1.12
-0.87
-0.69
-0.74
-1.07
-1.60
-2.16
-2.52
-2.56
-2.24
-1.66
-0.97
-0.31
0.23
0.65
1.01
1.35
1.71
2.07
2.36
2.53
2.54
2.41
2.14
1.78
1.38
0.95
0.53
0.16
-0.13
-0.26
-0.19
0.06
0.41
0.75
0.98
1.06
1.03
0.97
0.92
0.86
0.71
0.40
-0.05
-0.51
-0.85
-0.93
-0.78
-0.54
-0.37
-0.37
-0.54
-0.79
-1.05
-1.27
-1.47
-1.67
-1.84
-1.90
-1.74
-1.32
-0.68
0.05
0.71
1.18
1.45
1.56
1.58
1.60
1.62
1.61
1.56
1.44
1.23
0.93
0.57
0.20
-0.09
-0.21
-0.14
0.09
0.37
0.60
0.68
0.61
0.47
0.31
0.18
0.03
-0.19
-0.48
-0.80
-1.04
-1.11
-0.96
-0.66
-0.32
-0.10
-0.11
-0.42
-0.98
-1.67
-2.33
-2.78
-2.87
-2.55
-1.89
-1.07
-0.30
0.29
0.63
0.79
0.86
0.90
0.94
0.95
0.92
0.88
0.88
0.96
1.10
1.22
1.25
1.16
0.97
0.75
0.58
0.51
0.52
0.56
0.59
0.59
0.57
0.52
0.45
0.31
0.07
-0.26
-0.62
-0.93
-1.12
-1.21
-1.28
-1.41
-1.64
-1.92
-2.12
-2.14
-1.99
-1.75
-1.54
-1.38
-1.25
-1.00
-0.56
0.05
0.71
1.26
1.60
1.70
1.63
1.49
1.36
1.27
1.21
1.17
1.10
0.97
0.77
0.51
0.22
0.01
-0.09
-0.05
0.05
0.13
0.12
0.04
-0.05
-0.05
0.07
0.24
0.36
0.31
-0.01
-0.59
-1.35
-2.15
-2.86
-3.36
-3.60
-3.55
-3.23
-2.69
-1.98
-1.20
-0.46
0.13
0.52
0.73
0.85
0.98
1.17
1.40
1.55
1.54
1.34
1.03
0.74
0.58
0.57
0.64
0.67
0.62
0.50
0.39
0.35
0.37
0.35
0.22
-0.05
-0.39
-0.67
-0.78
-0.70
-0.50
-0.33
-0.32
-0.56
-1.07
-1.77
-2.53
-3.18
-3.55
-3.52
-3.09
-2.37
-1.53
-0.76
-0.16
0.31
0.72
1.17
1.66
2.09
2.34
2.34
2.11
1.78
1.47
1.26
1.11
0.97
0.77
0.56
0.46
0.57
0.90
1.33
1.65
1.69
1.42
0.95
0.45
0.06
-0.19
-0.38
-0.62
-0.92
-1.25
-1.50
-1.62
-1.62
-1.62
-1.75
-2.08
-2.56
-3.03
-3.33
-3.31
-2.91
-2.17
-1.19
-0.13
0.83
1.57
2.01
2.18
2.17
2.09
2.04
2.06
2.11
2.15
2.12
2.00
1.80
1.54
1.27
1.00
0.78
0.65
0.68
0.88
1.25
1.69
2.06
2.17
1.93
1.36
0.62
-0.08
-0.54
-0.70
-0.60
-0.39
-0.22
-0.17
-0.24
-0.39
-0.55
-0.70
-0.85
-1.03
-1.27
-1.56
-1.87
-2.15
-2.37
-2.56
-2.73
-2.88
-2.92
-2.76
-2.32
-1.64
-0.83
-0.09
0.46
0.78
0.98
1.15
1.34
1.53
1.64
1.68
1.69
1.75
1.88
2.02
2.06
1.90
1.57
1.17
0.88
0.80
0.92
1.13
1.29
1.31
1.20
0.99
0.79
0.63
0.56
0.56
0.64
0.79
0.99
1.20
1.30
1.21
0.88
0.35
-0.24
-0.75
-1.05
-1.10
-0.98
-0.81
-0.71
-0.76
-0.95
-1.24
-1.55
-1.83
-2.05
-2.18
-2.17
-2.02
-1.70
-1.23
-0.65
-0.03
0.53
0.96
1.21
1.30
1.33
1.39
1.58
1.92
2.31
2.60
2.63
2.33
1.74
1.01
0.31
-0.23
-0.53
-0.58
-0.42
-0.11
0.27
0.61
0.81
0.81
0.61
0.25
-0.13
-0.41
-0.52
-0.45
-0.30
-0.19
-0.22
-0.40
-0.66
-0.89
-1.00
-0.99
-0.95
-1.01
-1.23
-1.60
-2.00
-2.27
-2.28
-1.99
-1.44
-0.72
0.05
0.75
1.28
1.56
1.56
1.33
0.98
0.59
0.25
-0.04
-0.30
-0.53
-0.72
-0.84
-0.85
-0.77
-0.62
-0.47
-0.34
-0.23
-0.11
0.04
0.21
0.37
0.47
0.45
0.33
0.17
0.05
0.07
0.24
0.51
0.76
0.92
0.93
0.81
0.60
0.35
0.10
-0.14
-0.32
-0.43
-0.49
-0.53
-0.64
-0.83
-1.09
-1.30
-1.37
-1.24
-0.93
-0.54
-0.17
0.12
0.33
0.48
0.60
0.71
0.81
0.91
1.02
1.11
1.12
1.01
0.77
0.48
0.25
0.22
0.42
0.79
1.16
1.38
1.34
1.01
0.51
-0.03
-0.48
-0.75
-0.79
-0.63
-0.31
0.05
0.36
0.50
0.45
0.24
-0.06
-0.36
-0.59
-0.73
-0.78
-0.77
-0.74
-0.72
-0.77
-0.92
-1.20
-1.55
-1.88
-2.07
-2.04
-1.77
-1.29
-0.72
-0.18
0.25
0.54
0.71
0.82
0.94
1.08
1.21
1.27
1.21
1.02
0.79
0.60
0.52
0.59
0.74
0.89
0.98
0.96
0.85
0.68
0.47
0.27
0.09
-0.06
-0.17
-0.24
-0.29
-0.34
-0.39
-0.46
-0.52
-0.59
-0.65
-0.72
-0.82
-0.92
-0.99
-1.02
-0.98
-0.92
-0.92
-1.05
-1.36
-1.81
-2.26
-2.52
-2.48
-2.11
-1.53
-0.92
-0.41
-0.07
0.12
0.24
0.33
0.43
0.51
0.58
0.64
0.73
0.88
1.09
1.29
1.42
1.44
1.33
1.13
0.91
0.75
0.67
0.68
0.71
0.72
0.67
0.54
0.38
0.17
-0.06
-0.29
-0.49
-0.58
-0.51
-0.28
0.05
0.34
0.45
0.32
-0.04
-0.52
-1.00
-1.38
-1.63
-1.80
-1.97
-2.22
-2.53
-2.82
-2.94
-2.75
-2.17
-1.28
-0.25
0.67
1.30
1.59
1.60
1.49
1.38
1.28
1.15
0.91
0.59
0.27
0.10
0.17
0.46
0.84
1.12
1.19
1.02
0.72
0.45
0.29
0.26
0.29
0.28
0.20
0.02
-0.18
-0.35
-0.48
-0.57
-0.66
-0.75
-0.79
-0.75
-0.63
-0.50
-0.50
-0.73
-1.21
-1.80
-2.28
-2.48
-2.32
-1.92
-1.46
-1.08
-0.77
-0.42
0.11
0.82
1.57
2.14
2.37
2.23
1.88
1.51
1.23
1.06
0.94
0.80
0.63
0.50
0.46
0.52
0.62
0.68
0.66
0.60
0.54
0.51
0.52
0.48
0.37
0.16
-0.06
-0.24
-0.30
-0.26
-0.14
-0.03
0.02
-0.06
-0.26
-0.61
-1.08
-1.64
-2.22
-2.73
-3.05
-3.12
-2.85
-2.30
-1.53
-0.70
0.07
0.65
1.02
1.22
1.33
1.42
1.54
1.67
1.77
1.78
1.69
1.51
1.32
1.15
1.03
0.96
0.93
0.92
0.95
0.99
1.03
1.00
0.87
0.63
0.32
0.04
-0.12
-0.18
-0.18
-0.20
-0.33
-0.54
-0.76
-0.92
-0.94
-0.83
-0.66
-0.50
-0.45
-0.57
-0.86
-1.29
-1.78
-2.24
-2.59
-2.78
-2.76
-2.54
-2.12
-1.54
-0.86
-0.14
0.55
1.16
1.62
1.92
2.04
2.00
1.85
1.63
1.43
1.30
1.26
1.32
1.45
1.61
1.75
1.84
1.82
1.64
1.30
0.86
0.43
0.15
0.08
0.20
0.41
0.57
0.57
0.40
0.16
-0.06
-0.20
-0.32
-0.49
-0.78
-1.15
-1.53
-1.84
-2.08
-2.34
-2.73
-3.23
-3.69
-3.87
-3.51
-2.56
-1.15
0.38
1.69
2.52
2.80
2.65
2.28
1.88
1.59
1.44
1.40
1.40
1.38
1.31
1.20
1.07
0.94
0.83
0.75
0.71
0.70
0.71
0.73
0.75
0.76
0.78
0.83
0.91
0.98
0.96
0.77
0.40
-0.10
-0.64
-1.09
-1.42
-1.67
-1.92
-2.24
-2.62
-2.99
-3.27
-3.40
-3.35
-3.14
-2.77
-2.23
-1.54
-0.77
-0.02
0.56
0.89
0.98
0.92
0.87
0.89
1.02
1.21
1.39
1.55
1.68
1.76
1.79
1.76
1.63
1.43
1.18
0.96
0.84
0.83
0.92
1.03
1.06
0.94
0.67
0.28
-0.11
-0.41
-0.56
-0.60
-0.62
-0.74
-1.04
-1.50
-2.03
-2.49
-2.80
-2.90
-2.81
-2.55
-2.17
-1.68
-1.06
-0.36
0.37
1.05
1.55
1.80
1.79
1.57
1.24
0.91
0.61
0.34
0.08
-0.16
-0.33
-0.33
-0.10
0.35
0.91
1.40
1.66
1.64
1.40
1.06
0.73
0.46
0.26
0.07
-0.13
-0.33
-0.49
-0.60
-0.66
-0.76
-0.96
-1.31
-1.79
-2.33
-2.80
-3.12
-3.21
-3.08
-2.77
-2.30
-1.70
-0.99
-0.21
0.57
1.26
1.78
2.11
2.28
2.37
2.42
2.42
2.31
2.03
1.57
1.06
0.67
0.54
0.71
1.09
1.50
1.77
1.84
1.75
1.57
1.36
1.09
0.71
0.17
-0.44
-0.97
-1.28
-1.29
-1.04
-0.69
-0.40
-0.25
-0.22
-0.29
-0.47
-0.86
-1.51
-2.39
-3.31
-3.97
-4.13
-3.73
-2.92
-2.01
-1.24
-0.71
-0.34
0.06
0.60
1.25
1.88
2.33
2.52
2.45
2.25
2.03
1.86
1.76
1.70
1.63
1.53
1.44
1.37
1.33
1.29
1.22
1.12
0.99
0.88
0.82
0.82
0.84
0.83
0.74
0.50
0.12
-0.37
-0.86
-1.24
-1.43
-1.42
-1.27
-1.14
-1.20
-1.56
-2.20
-3.01
-3.80
-4.41
-4.73
-4.74
-4.45
-3.94
-3.23
-2.39
-1.48
-0.57
0.31
1.13
1.89
2.60
3.22
3.67
3.82
3.59
3.01
2.23
1.50
1.03
0.89
0.99
1.11
1.07
0.81
0.41
0.06
-0.08
0.05
0.33
0.61
0.74
0.71
0.60
0.53
0.57
0.68
0.74
0.64
0.40
0.08
-0.18
-0.33
-0.38
-0.43
-0.55
-0.74
-0.98
-1.19
-1.36
-1.49
-1.61
-1.70
-1.66
-1.40
-0.85
-0.05
0.91
1.84
2.60
3.07
3.22
3.10
2.82
2.50
2.26
2.16
2.15
2.21
2.28
2.37
2.53
2.77
3.07
3.33
3.44
3.36
3.10
2.77
2.44
2.17
1.88
1.50
0.95
0.22
-0.60
-1.39
-2.01
-2.40
-2.57
-2.58
-2.56
-2.62
-2.84
-3.23
-3.75
-4.32
-4.81
-5.11
-5.16
-4.92
-4.40
-3.65
-2.76
-1.83
-0.98
-0.33
0.07
0.23
0.26
0.26
0.31
0.45
0.63
0.78
0.87
0.91
0.94
1.00
1.06
1.09
1.03
0.91
0.77
0.73
0.82
1.02
1.21
1.26
1.09
0.75
0.36
0.04
-0.10
-0.11
-0.10
-0.21
-0.51
-1.00
-1.63
-2.28
-2.87
-3.35
-3.67
-3.76
-3.55
-3.02
-2.21
-1.22
-0.17
0.85
1.76
2.55
3.20
3.65
3.83
3.67
3.18
2.50
1.80
1.28
1.02
0.96
1.01
1.04
0.99
0.89
0.79
0.75
0.74
0.75
0.72
0.64
0.52
0.38
0.24
0.05
-0.19
-0.52
-0.92
-1.36
-1.81
-2.23
-2.61
-2.96
-3.27
-3.51
-3.61
-3.49
-3.11
-2.46
-1.63
-0.73
0.13
0.87
1.50
2.04
2.48
2.78
2.85
2.62
2.13
1.51
0.96
0.66
0.66
0.91
1.23
1.45
1.49
1.35
1.14
0.97
0.90
0.91
0.91
0.81
0.58
0.25
-0.13
-0.47
-0.70
-0.85
-0.96
-1.09
-1.28
-1.50
-1.70
-1.88
-2.07
-2.32
-2.66
-3.06
-3.40
-3.52
-3.30
-2.74
-1.93
-1.01
-0.14
0.59
1.20
1.73
2.23
2.70
3.06
3.17
2.95
2.42
1.71
1.07
0.70
0.68
0.94
1.30
1.58
1.62
1.43
1.08
0.71
0.39
0.13
-0.08
-0.30
-0.52
-0.70
-0.78
-0.73
-0.56
-0.39
-0.31
-0.39
-0.64
-1.00
-1.38
-1.74
-2.06
-2.34
-2.56
-2.70
-2.72
-2.62
-2.38
-2.04
-1.60
-1.06
-0.41
0.30
0.98
1.53
1.86
1.98
1.93
1.81
1.69
1.59
1.50
1.42
1.33
1.26
1.22
1.25
1.34
1.43
1.50
1.48
1.35
1.10
0.75
0.36
-0.01
-0.25
-0.31
-0.19
0.03
0.24
0.30
0.14
-0.21
-0.65
-1.04
-1.29
-1.40
-1.48
-1.63
-1.94
-2.40
-2.90
-3.31
-3.51
-3.46
-3.18
-2.70
-2.10
-1.39
-0.60
0.24
1.06
1.78
2.29
2.56
2.58
2.40
2.10
1.76
1.43
1.17
0.99
0.90
0.91
0.96
1.01
0.98
0.83
0.58
0.27
-0.03
-0.23
-0.32
-0.30
-0.21
-0.10
0.00
0.08
0.09
-0.01
-0.28
-0.73
-1.31
-1.91
-2.42
-2.76
-2.97
-3.09
-3.17
-3.22
-3.17
-2.95
-2.54
-1.99
-1.39
-0.84
-0.36
0.12
0.69
1.36
2.06
2.64
2.95
2.91
2.59
2.15
1.74
1.45
1.23
1.00
0.68
0.30
-0.02
-0.13
0.03
0.40
0.81
1.08
1.11
0.93
0.66
0.45
0.33
0.29
0.22
0.04
-0.28
-0.67
-1.07
-1.46
-1.86
-2.33
-2.90
-3.51
-4.01
-4.23
-4.07
-3.49
-2.58
-1.48
-0.37
0.64
1.50
2.20
2.71
3.00
3.02
2.74
2.21
1.59
1.06
0.79
0.85
1.17
1.59
1.93
2.10
2.07
1.89
1.62
1.31
0.99
0.69
0.46
0.33
0.31
0.36
0.38
0.30
0.05
-0.35
-0.83
-1.32
-1.79
-2.26
-2.77
-3.33
-3.89
-4.29
-4.40
-4.13
-3.51
-2.67
-1.75
-0.85
-0.01
0.78
1.52
2.14
2.55
2.68
2.54
2.22
1.84
1.48
1.13
0.75
0.36
-0.01
-0.27
-0.32
-0.19
0.05
0.29
0.44
0.52
0.57
0.66
0.77
0.86
0.87
0.74
0.51
0.22
-0.07
-0.36
-0.67
-1.03
-1.47
-1.98
-2.54
-3.09
-3.57
-3.89
-3.99
-3.82
-3.35
-2.58
-1.55
-0.39
0.79
1.84
2.66
3.23
3.56
3.74
3.84
3.89
3.89
3.81
3.62
3.29
2.85
2.35
1.87
1.49
1.28
1.21
1.27
1.36
1.42
1.41
1.37
1.30
1.24
1.18
1.08
0.91
0.68
0.46
0.30
0.28
0.39
0.60
0.85
1.06
1.18
1.18
1.04
0.73
0.28
-0.26
-0.74
-1.04
-1.02
-0.63
0.07
0.94
1.77
2.36
2.60
2.47
2.07
1.56
1.05
0.58
0.09
-0.56
-1.45
-2.60
-3.92
-5.25
-6.43
-7.36
-7.96
-8.22
-8.13
-7.71
-7.03
-6.19
-5.28
-4.39
-3.55
-2.73
-1.89
-0.99
-0.05
0.85
1.62
2.20
2.53
2.59
2.34
1.78
0.89
-0.30
-1.70
-3.12
-4.32
-5.08
-5.26
-4.86
-4.00
-2.85
-1.57
-0.23
1.12
2.42
3.57
4.45
4.97
5.09
4.92
4.60
4.26
3.98
3.73
3.46
3.13
2.68
2.13
1.52
0.91
0.37
-0.03
-0.27
-0.37
-0.45
-0.62
-0.98
-1.50
-2.07
-2.50
-2.68
-2.58
-2.33
-2.10
-2.05
-2.21
-2.52
-2.84
-3.05
-3.12
-3.08
-3.00
-2.92
-2.78
-2.46
-1.84
-0.89
0.29
1.50
2.54
3.23
3.56
3.61
3.54
3.50
3.60
3.85
4.22
4.57
4.77
4.69
4.32
3.70
3.02
2.48
2.25
2.33
2.63
2.95
3.11
3.04
2.76
2.37
1.91
1.37
0.69
-0.17
-1.18
-2.18
-3.01
-3.53
-3.73
-3.67
-3.47
-3.17
-2.78
-2.25
-1.56
-0.76
0.07
0.84
1.47
1.91
2.10
2.02
1.69
1.20
0.70
0.36
0.26
0.39
0.61
0.73
0.64
0.33
-0.08
-0.44
-0.61
-0.54
-0.29
0.03
0.31
0.53
0.68
0.77
0.75
0.58
0.20
-0.35
-0.94
-1.41
-1.60
-1.47
-1.06
-0.47
0.21
0.97
1.80
2.70
3.58
4.33
4.84
5.05
4.99
4.75
4.40
3.98
3.47
2.85
2.11
1.31
0.53
-0.16
-0.71
-1.11
-1.37
-1.54
-1.65
-1.70
-1.70
-1.64
-1.52
-1.38
-1.31
-1.42
-1.80
-2.50
-3.47
-4.57
-5.59
-6.29
-6.55
-6.33
-5.73
-4.88
-3.92
-2.93
-1.95
-1.01
-0.15
0.55
1.02
1.22
1.23
1.18
1.17
1.23
1.32
1.31
1.09
0.65
0.09
-0.40
-0.66
-0.58
-0.19
0.39
0.97
1.41
1.64
1.67
1.53
1.30
1.01
0.64
0.18
-0.38
-1.00
-1.65
-2.26
-2.77
-3.12
-3.27
-3.17
-2.78
-2.09
-1.15
-0.05
1.04
1.93
2.49
2.69
2.59
2.38
2.19
2.12
2.12
2.11
2.05
1.95
1.93
2.05
2.28
2.48
2.47
2.16
1.61
1.01
0.58
0.45
0.56
0.80
0.98
1.02
0.91
0.71
0.49
0.28
0.06
-0.20
-0.56
-1.05
-1.68
-2.38
-3.08
-3.65
-3.99
-3.98
-3.58
-2.85
-1.89
-0.87
0.06
0.79
1.29
1.57
1.69
1.71
1.68
1.60
1.43
1.16
0.79
0.43
0.16
0.08
0.19
0.41
0.60
0.68
0.61
0.46
0.32
0.23
0.16
0.10
0.02
-0.02
0.01
0.14
0.30
0.40
0.31
-0.01
-0.53
-1.19
-1.90
-2.59
-3.18
-3.57
-3.68
-3.44
-2.89
-2.14
-1.38
-0.73
-0.24
0.15
0.53
0.96
1.41
1.79
1.99
1.96
1.75
1.46
1.17
0.91
0.66
0.42
0.22
0.13
0.19
0.39
0.63
0.76
0.72
0.51
0.25
0.09
0.13
0.37
0.68
0.91
0.93
0.67
0.13
-0.61
-1.45
-2.30
-3.10
-3.76
-4.21
-4.38
-4.18
-3.57
-2.62
-1.46
-0.30
0.69
1.41
1.85
2.12
2.29
2.40
2.40
2.22
1.84
1.32
0.83
0.52
0.48
0.68
1.00
1.30
1.49
1.56
1.60
1.66
1.75
1.83
1.84
1.74
1.51
1.22
0.91
0.62
0.36
0.07
-0.32
-0.86
-1.55
-2.28
-2.85
-3.06
-2.83
-2.24
-1.49
-0.81
-0.33
-0.03
0.25
0.67
1.26
1.89
2.34
2.42
2.10
1.54
0.95
0.55
0.42
0.50
0.65
0.72
0.64
0.46
0.29
0.24
0.38
0.64
0.90
1.01
0.86
0.49
0.01
-0.40
-0.61
-0.57
-0.36
-0.09
0.08
0.06
-0.18
-0.61
-1.21
-1.92
-2.63
-3.23
-3.54
-3.45
-2.93
-2.10
-1.15
-0.30
0.34
0.79
1.18
1.61
2.14
2.67
3.03
3.08
2.77
2.19
1.52
0.94
0.59
0.47
0.52
0.62
0.70
0.73
0.73
0.73
0.75
0.77
0.72
0.55
0.24
-0.15
-0.49
-0.66
-0.58
-0.26
0.18
0.59
0.78
0.65
0.21
-0.47
-1.23
-1.93
-2.44
-2.70
-2.70
-2.48
-2.12
-1.67
-1.22
-0.77
-0.27
0.30
0.96
1.64
2.20
2.49
2.48
2.23
1.90
1.63
1.47
1.36
1.19
0.90
0.52
0.19
0.01
0.02
0.12
0.17
0.09
-0.10
-0.32
-0.46
-0.51
-0.54
-0.59
-0.65
-0.64
-0.47
-0.14
0.21
0.37
0.17
-0.39
-1.16
-1.89
-2.39
-2.61
-2.64
-2.62
-2.61
-2.55
-2.31
-1.78
-1.01
-0.15
0.57
1.00
1.08
0.92
0.66
0.45
0.37
0.40
0.48
0.53
0.46
0.27
0.02
-0.16
-0.17
0.02
0.33
0.65
0.84
0.85
0.73
0.57
0.47
0.44
0.44
0.41
0.30
0.13
-0.08
-0.33
-0.63
-1.01
-1.46
-1.95
-2.39
-2.72
-2.89
-2.85
-2.57
-2.04
-1.30
-0.41
0.52
1.33
1.93
2.25
2.34
2.25
2.04
1.74
1.35
0.90
0.45
0.11
-0.02
0.07
0.34
0.64
0.81
0.81
0.70
0.59
0.60
0.70
0.75
0.60
0.19
-0.39
-0.94
-1.28
-1.33
-1.20
-1.08
-1.17
-1.53
-2.08
-2.67
-3.16
-3.45
-3.51
-3.32
-2.89
-2.22
-1.38
-0.50
0.28
0.85
1.15
1.18
1.01
0.71
0.35
0.02
-0.23
-0.32
-0.24
-0.02
0.25
0.43
0.45
0.30
0.03
-0.26
-0.53
-0.72
-0.85
-0.90
-0.85
-0.67
-0.34
0.08
0.44
0.59
0.42
-0.10
-0.88
-1.75
-2.51
-3.03
-3.24
-3.17
-2.88
-2.47
-2.01
-1.52
-1.04
-0.55
-0.02
0.60
1.27
1.95
2.48
2.74
2.64
2.20
1.57
0.93
0.45
0.22
0.22
0.38
0.60
0.81
0.99
1.09
1.09
0.94
0.63
0.24
-0.15
-0.45
-0.64
-0.74
-0.82
-0.90
-0.95
-0.92
-0.82
-0.73
-0.81
-1.15
-1.73
-2.36
-2.80
-2.86
-2.55
-2.01
-1.43
-0.95
-0.54
-0.11
0.42
1.02
1.58
1.96
2.09
2.01
1.82
1.67
1.60
1.64
1.75
1.86
1.90
1.82
1.60
1.28
0.96
0.75
0.75
0.94
1.24
1.51
1.67
1.66
1.49
1.19
0.79
0.35
-0.05
-0.31
-0.36
-0.21
0.03
0.17
0.06
-0.35
-0.99
-1.70
-2.38
-2.94
-3.36
-3.64
-3.76
-3.65
-3.31
-2.72
-1.95
-1.05
-0.11
0.81
1.63
2.26
2.62
2.67
2.47
2.13
1.80
1.58
1.51
1.55
1.61
1.63
1.57
1.48
1.44
1.53
1.77
2.11
2.42
2.54
2.39
1.97
1.37
0.72
0.12
-0.41
-0.86
-1.22
-1.44
-1.48
-1.37
-1.22
-1.18
-1.38
-1.82
-2.42
-3.01
-3.50
-3.81
-3.97
-3.97
-3.80
-3.40
-2.78
-2.02
-1.30
-0.80
-0.64
-0.80
-1.14
-1.51
-1.73
-1.77
-1.66
-1.51
-1.36
-1.24
-1.09
-0.83
-0.44
0.05
0.57
1.04
1.41
1.71
1.96
2.20
2.47
2.78
3.09
3.35
3.51
3.51
3.35
3.06
2.72
2.42
2.23
2.16
2.20
2.26
2.23
2.02
1.54
0.78
-0.17
-1.13
-1.90
-2.28
-2.20
-1.69
-0.89
-0.00
0.84
1.53
2.02
2.32
2.42
2.37
2.17
1.89
1.55
1.22
0.94
0.76
0.69
0.74
0.86
0.96
0.97
0.83
0.56
0.19
-0.17
-0.45
-0.58
-0.58
-0.47
-0.33
-0.27
-0.32
-0.53
-0.86
-1.22
-1.53
-1.70
-1.71
-1.63
-1.56
-1.62
-1.84
-2.17
-2.48
-2.61
-2.45
-2.00
-1.33
-0.58
0.16
0.82
1.39
1.86
2.22
2.44
2.47
2.31
2.02
1.64
1.28
1.01
0.86
0.82
0.87
0.93
0.94
0.87
0.65
0.31
-0.09
-0.47
-0.72
-0.78
-0.65
-0.44
-0.28
-0.28
-0.48
-0.82
-1.19
-1.52
-1.82
-2.15
-2.59
-3.17
-3.81
-4.32
-4.51
-4.21
-3.41
-2.25
-1.01
0.03
0.69
0.96
1.04
1.14
1.41
1.85
2.33
2.66
2.72
2.50
2.08
1.58
1.07
0.57
0.12
-0.27
-0.50
-0.50
-0.21
0.30
0.94
1.55
2.02
2.30
2.39
2.33
2.18
1.98
1.73
1.43
1.11
0.80
0.51
0.25
-0.03
-0.42
-1.00
-1.79
-2.74
-3.73
-4.59
-5.13
-5.25
-4.90
-4.16
-3.15
-2.05
-1.01
-0.15
0.43
0.73
0.78
0.66
0.50
0.40
0.43
0.60
0.84
1.06
1.17
1.14
1.00
0.82
0.71
0.74
0.91
1.19
1.47
1.67
1.69
1.54
1.27
0.97
0.75
0.66
0.70
0.85
1.08
1.39
1.73
2.04
2.19
2.05
1.53
0.62
-0.57
-1.84
-2.96
-3.79
-4.22
-4.28
-4.06
-3.65
-3.12
-2.52
-1.85
-1.13
-0.39
0.25
0.70
0.90
0.86
0.70
0.56
0.54
0.64
0.79
0.87
0.85
0.80
0.83
1.00
1.32
1.67
1.93
2.00
1.90
1.73
1.61
1.59
1.64
1.67
1.58
1.34
0.98
0.55
0.13
-0.18
-0.36
-0.40
-0.31
-0.15
0.01
0.13
0.14
-0.02
-0.42
-1.04
-1.85
-2.66
-3.27
-3.51
-3.30
-2.67
-1.78
-0.79
0.19
1.07
1.81
2.33
2.54
2.41
1.98
1.39
0.82
0.46
0.35
0.45
0.65
0.79
0.78
0.62
0.32
-0.02
-0.33
-0.55
-0.63
-0.54
-0.31
0.03
0.37
0.62
0.69
0.59
0.37
0.14
-0.02
-0.10
-0.16
-0.31
-0.61
-1.10
-1.70
-2.32
-2.87
-3.26
-3.44
-3.40
-3.15
-2.69
-2.07
-1.28
-0.38
0.58
1.47
2.15
2.50
2.52
2.27
1.88
1.46
1.07
0.72
0.40
0.15
0.01
0.04
0.24
0.51
0.73
0.81
0.73
0.53
0.33
0.18
0.13
0.14
0.19
0.27
0.35
0.44
0.50
0.49
0.33
-0.04
-0.64
-1.42
-2.24
-2.90
-3.27
-3.28
-3.01
-2.59
-2.13
-1.68
-1.17
-0.53
0.25
1.08
1.83
2.35
2.62
2.70
2.66
2.56
2.36
2.04
1.62
1.18
0.86
0.70
0.70
0.73
0.70
0.55
0.29
-0.01
-0.29
-0.50
-0.57
-0.48
-0.22
0.18
0.56
0.75
0.60
0.07
-0.77
-1.73
-2.61
-3.27
-3.68
-3.89
-3.97
-3.92
-3.72
-3.32
-2.68
-1.83
-0.88
0.03
0.75
1.21
1.41
1.44
1.40
1.34
1.29
1.27
1.29
1.41
1.66
2.03
2.46
2.83
3.03
3.00
2.77
2.42
2.07
1.76
1.53
1.34
1.17
1.00
0.82
0.59
0.28
-0.14
-0.64
-1.18
-1.70
-2.15
-2.52
-2.81
-3.04
-3.13
-3.03
-2.65
-2.00
-1.14
-0.21
0.64
1.31
1.77
2.02
2.08
1.96
1.71
1.39
1.08
0.88
0.86
0.97
1.16
1.32
1.36
1.31
1.20
1.12
1.09
1.08
1.02
0.86
0.61
0.34
0.18
0.17
0.30
0.45
0.49
0.34
0.03
-0.34
-0.62
-0.77
-0.84
-0.97
-1.29
-1.83
-2.52
-3.19
-3.66
-3.80
-3.58
-3.05
-2.29
-1.39
-0.43
0.52
1.37
2.04
2.49
2.72
2.76
2.66
2.45
2.11
1.67
1.19
0.77
0.51
0.45
0.57
0.77
0.97
1.10
1.16
1.15
1.09
1.01
0.89
0.73
0.54
0.30
0.04
-0.21
-0.43
-0.56
-0.63
-0.69
-0.83
-1.13
-1.58
-2.09
-2.49
-2.67
-2.63
-2.43
-2.22
-2.04
-1.87
-1.61
-1.16
-0.51
0.29
1.08
1.73
2.12
2.23
2.14
1.93
1.71
1.52
1.40
1.28
1.14
0.94
0.72
0.54
0.46
0.51
0.63
0.72
0.69
0.54
0.32
0.14
0.09
0.15
0.27
0.38
0.42
0.39
0.31
0.20
0.05
-0.17
-0.49
-0.95
-1.53
-2.21
-2.89
-3.46
-3.79
-3.78
-3.41
-2.73
-1.86
-0.97
-0.19
0.37
0.67
0.72
0.60
0.40
0.24
0.20
0.30
0.49
0.70
0.88
0.98
1.03
1.03
0.97
0.88
0.78
0.74
0.84
1.12
1.51
1.88
2.10
2.08
1.85
1.57
1.39
1.44
1.68
2.00
2.23
2.25
2.04
1.69
1.27
0.88
0.53
0.18
-0.16
-0.48
-0.71
-0.78
-0.65
-0.37
-0.01
0.33
0.60
0.78
0.86
0.87
0.85
0.81
0.77
0.74
0.72
0.67
0.59
0.49
0.39
0.36
0.45
0.66
0.88
0.99
0.87
0.51
0.01
-0.43
-0.63
-0.50
-0.10
0.38
0.73
0.82
0.67
0.38
0.08
-0.16
-0.37
-0.60
-0.92
-1.30
-1.68
-1.97
-2.14
-2.20
-2.27
-2.44
-2.75
-3.14
-3.49
-3.71
-3.73
-3.56
-3.28
-2.92
-2.53
-2.06
-1.52
-0.93
-0.32
0.24
0.76
1.24
1.71
2.16
2.53
2.71
2.60
2.20
1.58
0.87
0.25
-0.13
-0.20
0.01
0.39
0.79
1.08
1.18
1.07
0.83
0.55
0.31
0.16
0.09
0.07
0.05
-0.01
-0.14
-0.33
-0.55
-0.74
-0.83
-0.82
-0.73
-0.67
-0.81
-1.27
-2.05
-3.04
-4.00
-4.66
-4.82
-4.45
-3.65
-2.62
-1.54
-0.56
0.24
0.82
1.20
1.41
1.55
1.70
1.91
2.18
2.39
2.41
2.15
1.67
1.15
0.80
0.74
0.95
1.25
1.40
1.27
0.91
0.48
0.17
0.11
0.24
0.45
0.57
0.54
0.40
0.25
0.19
0.20
0.23
0.16
-0.12
-0.63
-1.31
-2.07
-2.80
-3.37
-3.74
-3.88
-3.81
-3.59
-3.27
-2.88
-2.44
-1.93
-1.30
-0.53
0.33
1.19
1.93
2.44
2.68
2.68
2.50
2.22
1.90
1.57
1.23
0.91
0.63
0.43
0.35
0.37
0.47
0.61
0.75
0.85
0.89
0.83
0.67
0.45
0.18
-0.06
-0.19
-0.13
0.12
0.51
0.86
0.99
0.74
0.05
-1.00
-2.25
-3.45
-4.42
-5.01
-5.15
-4.87
-4.23
-3.34
-2.31
-1.31
-0.43
0.26
0.76
1.15
1.49
1.85
2.23
2.63
2.98
3.19
3.20
2.97
2.56
2.11
1.76
1.62
1.70
1.93
2.20
2.43
2.57
2.64
2.64
2.55
2.32
1.94
1.44
0.93
0.54
0.34
0.27
0.22
0.09
-0.19
-0.58
-1.05
-1.60
-2.26
-3.03
-3.85
-4.58
-5.03
-5.06
-4.65
-3.89
-2.95
-1.97
-1.01
-0.10
0.78
1.58
2.21
2.55
2.54
2.19
1.64
1.04
0.54
0.25
0.21
0.38
0.72
1.14
1.55
1.87
2.01
1.94
1.66
1.23
0.71
0.23
-0.14
-0.32
-0.31
-0.19
-0.10
-0.22
-0.63
-1.35
-2.26
-3.18
-3.97
-4.53
-4.84
-4.88
-4.63
-4.08
-3.25
-2.23
-1.19
-0.29
0.35
0.70
0.80
0.72
0.55
0.33
0.10
-0.14
-0.35
-0.53
-0.69
-0.83
-0.98
-1.15
-1.35
-1.55
-1.70
-1.74
-1.64
-1.41
-1.10
-0.79
-0.52
-0.29
-0.08
0.15
0.38
0.55
0.56
0.34
-0.11
-0.71
-1.39
-2.01
-2.51
-2.83
-2.91
-2.77
-2.40
-1.83
-1.13
-0.39
0.32
0.90
1.33
1.65
1.92
2.21
2.56
2.93
3.23
3.36
3.28
2.99
2.56
2.10
1.72
1.49
1.46
1.59
1.84
2.11
2.29
2.30
2.14
1.86
1.55
1.29
1.07
0.84
0.51
-0.02
-0.81
-1.82
-2.94
-3.95
-4.65
-4.87
-4.55
-3.77
-2.70
-1.56
-0.53
0.28
0.81
1.11
1.24
1.29
1.30
1.28
1.26
1.20
1.12
1.02
0.94
0.90
0.90
0.93
0.92
0.85
0.76
0.67
0.65
0.71
0.84
0.99
1.11
1.15
1.10
1.00
0.87
0.68
0.39
-0.06
-0.68
-1.40
-2.08
-2.57
-2.77
-2.70
-2.45
-2.13
-1.77
-1.33
-0.72
0.11
1.10
2.10
2.92
3.41
3.54
3.42
3.17
2.93
2.75
2.56
2.30
1.93
1.51
1.13
0.87
0.74
0.70
0.66
0.61
0.55
0.54
0.61
0.72
0.79
0.73
0.53
0.22
-0.09
-0.32
-0.45
-0.54
-0.70
-1.05
-1.63
-2.38
-3.14
-3.69
-3.88
-3.62
-2.96
-2.01
-0.93
0.13
1.09
1.90
2.55
3.01
3.25
3.23
2.94
2.42
1.77
1.10
0.52
0.11
-0.11
-0.14
0.02
0.35
0.83
1.37
1.86
2.20
2.32
2.26
2.09
1.90
1.70
1.43
1.04
0.50
-0.16
-0.84
-1.46
-1.98
-2.40
-2.74
-2.99
-3.12
-3.10
-2.89
-2.55
-2.13
-1.69
-1.26
-0.81
-0.33
0.21
0.75
1.22
1.57
1.75
1.78
1.70
1.51
1.22
0.81
0.32
-0.14
-0.46
-0.55
-0.41
-0.13
0.21
0.59
1.06
1.67
2.42
3.17
3.72
3.88
3.61
3.01
2.29
1.65
1.18
0.85
0.54
0.15
-0.34
-0.87
-1.34
-1.64
-1.71
-1.53
-1.14
-0.56
0.23
1.22
2.39
3.68
4.95
6.06
6.90
7.42
7.67
7.71
7.62
7.43
7.13
6.69
6.09
5.33
4.40
3.31
2.06
0.68
-0.81
-2.40
-4.09
-5.93
-7.95
-10.18
-12.55
-14.93
-17.11
-18.86
-19.95
-20.21
-19.54
-17.92
-15.39
-12.10
-8.27
-4.22
-0.29
3.17
5.86
7.59
8.27
7.98
6.88
5.24
3.38
1.65
0.32
-0.44
-0.64
-0.41
0.05
0.57
1.05
1.45
1.77
2.01
2.14
2.14
2.02
1.82
1.61
1.44
1.30
1.14
0.96
0.75
0.52
0.29
0.10
-0.03
-0.08
-0.00
0.19
0.48
0.76
0.92
0.88
0.63
0.20
-0.33
-0.92
-1.53
-2.14
-2.73
-3.24
-3.60
-3.72
-3.56
-3.07
-2.26
-1.17
0.07
1.31
2.32
2.92
3.04
2.75
2.24
1.71
1.29
1.00
0.77
0.52
0.20
-0.16
-0.50
-0.78
-1.04
-1.31
-1.61
-1.89
-2.03
-1.90
-1.49
-0.87
-0.22
0.28
0.53
0.56
0.44
0.26
0.01
-0.38
-1.01
-1.89
-2.94
-3.96
-4.74
-5.11
-5.01
-4.49
-3.68
-2.69
-1.64
-0.63
0.31
1.11
1.74
2.13
2.28
2.19
1.97
1.74
1.60
1.60
1.67
1.72
1.66
1.52
1.38
1.36
1.51
1.78
2.07
2.26
2.32
2.26
2.13
1.95
1.73
1.46
1.13
0.80
0.51
0.25
-0.04
-0.48
-1.15
-2.04
-3.05
-4.00
-4.67
-4.94
-4.77
-4.22
-3.40
-2.44
-1.43
-0.44
0.51
1.40
2.18
2.83
3.28
3.50
3.47
3.20
2.75
2.18
1.54
0.87
0.17
-0.55
-1.29
-1.97
-2.51
-2.85
-2.91
-2.70
-2.24
-1.60
-0.84
0.01
0.89
1.75
2.57
3.30
3.93
4.43
4.78
4.90
4.70
4.12
3.17
1.99
0.81
-0.10
-0.56
-0.50
-0.05
0.58
1.19
1.70
2.10
2.48
2.86
3.19
3.38
3.31
2.95
2.35
1.62
0.88
0.21
-0.37
-0.86
-1.25
-1.54
-1.70
-1.70
-1.54
-1.27
-0.95
-0.64
-0.38
-0.20
-0.06
0.05
0.12
0.11
-0.03
-0.33
-0.76
-1.28
-1.85
-2.47
-3.16
-3.92
-4.72
-5.42
-5.89
-5.99
-5.64
-4.85
-3.67
-2.25
-0.75
0.65
1.80
2.60
3.02
3.11
2.97
2.69
2.36
2.02
1.68
1.38
1.14
0.99
0.91
0.90
0.90
0.90
0.87
0.82
0.79
0.79
0.85
0.94
1.04
1.08
1.04
0.86
0.56
0.14
-0.41
-1.07
-1.83
-2.62
-3.36
-3.92
-4.20
-4.12
-3.68
-2.95
-2.02
-1.00
-0.01
0.89
1.63
2.15
2.38
2.33
2.07
1.71
1.43
1.30
1.31
1.33
1.23
0.93
0.46
-0.03
-0.37
-0.46
-0.33
-0.03
0.33
0.69
0.98
1.14
1.09
0.76
0.15
-0.64
-1.46
-2.17
-2.69
-3.06
-3.41
-3.85
-4.42
-4.97
-5.29
-5.17
-4.50
-3.37
-1.98
-0.60
0.62
1.60
2.39
3.03
3.50
3.74
3.66
3.29
2.75
2.27
2.03
2.11
2.41
2.76
2.99
3.02
2.85
2.57
2.25
1.95
1.69
1.46
1.31
1.26
1.29
1.35
1.35
1.21
0.87
0.33
-0.37
-1.24
-2.27
-3.40
-4.55
-5.56
-6.26
-6.52
-6.34
-5.75
-4.85
-3.72
-2.41
-0.97
0.51
1.87
2.93
3.54
3.69
3.43
2.96
2.44
2.03
1.77
1.64
1.59
1.55
1.50
1.48
1.53
1.65
1.83
1.99
2.07
2.06
2.02
1.97
1.95
1.90
1.76
1.46
1.03
0.55
0.16
-0.09
-0.24
-0.41
-0.74
-1.33
-2.17
-3.17
-4.22
-5.16
-5.86
-6.22
-6.15
-5.61
-4.64
-3.32
-1.81
-0.30
1.03
2.08
2.82
3.26
3.44
3.42
3.23
2.94
2.59
2.27
2.02
1.85
1.73
1.61
1.49
1.39
1.37
1.50
1.77
2.11
2.42
2.63
2.69
2.62
2.46
2.22
1.94
1.64
1.36
1.11
0.88
0.64
0.32
-0.11
-0.63
-1.22
-1.84
-2.52
-3.26
-4.01
-4.64
-4.94
-4.78
-4.11
-3.08
-1.92
-0.83
0.12
0.98
1.82
2.62
3.23
3.48
3.30
2.83
2.32
2.03
2.01
2.14
2.14
1.83
1.24
0.59
0.15
0.11
0.42
0.88
1.26
1.43
1.37
1.17
0.93
0.69
0.46
0.23
0.00
-0.20
-0.35
-0.44
-0.52
-0.71
-1.15
-1.90
-2.93
-4.06
-5.02
-5.56
-5.57
-5.10
-4.31
-3.39
-2.44
-1.47
-0.46
0.55
1.44
2.08
2.41
2.49
2.46
2.45
2.49
2.52
2.44
2.20
1.82
1.38
0.99
0.69
0.49
0.40
0.43
0.59
0.85
1.16
1.40
1.46
1.29
0.92
0.49
0.12
-0.14
-0.29
-0.40
-0.56
-0.82
-1.21
-1.74
-2.41
-3.20
-4.03
-4.76
-5.18
-5.14
-4.62
-3.73
-2.69
-1.71
-0.85
-0.08
0.70
1.51
2.28
2.86
3.12
3.02
2.66
2.18
1.75
1.43
1.22
1.08
0.98
0.92
0.90
0.93
0.97
0.97
0.91
0.79
0.63
0.48
0.33
0.17
-0.06
-0.35
-0.64
-0.81
-0.78
-0.56
-0.30
-0.21
-0.52
-1.26
-2.33
-3.41
-4.20
-4.50
-4.27
-3.60
-2.68
-1.63
-0.54
0.57
1.63
2.56
3.20
3.45
3.32
2.91
2.45
2.09
1.94
1.97
2.08
2.19
2.24
2.21
2.09
1.83
1.40
0.83
0.22
-0.30
-0.57
-0.55
-0.29
0.06
0.33
0.42
0.29
0.02
-0.30
-0.58
-0.80
-1.01
-1.28
-1.68
-2.24
-2.94
-3.68
-4.36
-4.88
-5.20
-5.30
-5.18
-4.82
-4.22
-3.35
-2.27
-1.04
0.20
1.33
2.23
2.82
3.06
2.99
2.68
2.30
1.96
1.78
1.77
1.84
1.88
1.80
1.62
1.42
1.32
1.37
1.53
1.68
1.69
1.46
1.01
0.39
-0.27
-0.84
-1.18
-1.24
-1.03
-0.67
-0.35
-0.28
-0.57
-1.21
-2.05
-2.88
-3.52
-3.88
-3.96
-3.78
-3.34
-2.63
-1.69
-0.60
0.46
1.31
1.84
2.04
2.00
1.87
1.73
1.62
1.50
1.37
1.28
1.26
1.33
1.47
1.60
1.65
1.61
1.51
1.40
1.29
1.13
0.90
0.59
0.24
-0.06
-0.24
-0.30
-0.26
-0.21
-0.20
-0.27
-0.43
-0.72
-1.17
-1.84
-2.69
-3.62
-4.44
-4.95
-5.01
-4.56
-3.64
-2.40
-1.03
0.27
1.36
2.16
2.64
2.87
2.91
2.88
2.84
2.83
2.83
2.76
2.54
2.15
1.62
1.07
0.61
0.34
0.25
0.28
0.35
0.38
0.39
0.40
0.41
0.38
0.27
0.03
-0.31
-0.67
-0.98
-1.22
-1.42
-1.73
-2.22
-2.94
-3.79
-4.60
-5.17
-5.38
-5.17
-4.55
-3.59
-2.36
-0.95
0.51
1.86
2.91
3.55
3.78
3.72
3.55
3.41
3.30
3.17
2.91
2.46
1.87
1.29
0.85
0.65
0.66
0.80
0.94
1.01
0.95
0.81
0.65
0.50
0.38
0.26
0.08
-0.22
-0.67
-1.23
-1.83
-2.43
-3.01
-3.64
-4.34
-5.09
-5.73
-6.03
-5.78
-4.90
-3.51
-1.90
-0.32
1.04
2.13
3.02
3.75
4.29
4.55
4.45
4.01
3.41
2.84
2.47
2.30
2.21
2.06
1.76
1.33
0.86
0.48
0.26
0.20
0.26
0.40
0.62
0.90
1.23
1.51
1.64
1.53
1.20
0.72
0.17
-0.37
-0.93
-1.58
-2.37
-3.28
-4.17
-4.85
-5.15
-5.02
-4.49
-3.66
-2.63
-1.50
-0.37
0.61
1.31
1.64
1.60
1.31
0.97
0.69
0.53
0.44
0.32
0.15
-0.04
-0.18
-0.20
-0.05
0.25
0.63
1.01
1.32
1.50
1.54
1.46
1.32
1.17
1.00
0.77
0.41
-0.12
-0.80
-1.56
-2.34
-3.08
-3.75
-4.25
-4.50
-4.37
-3.84
-2.96
-1.87
-0.72
0.37
1.33
2.13
2.76
3.19
3.42
3.41
3.21
2.88
2.50
2.14
1.86
1.70
1.64
1.68
1.75
1.80
1.78
1.69
1.55
1.38
1.22
1.07
0.95
0.87
0.83
0.78
0.61
0.19
-0.57
-1.68
-3.03
-4.37
-5.40
-5.90
-5.77
-5.04
-3.86
-2.46
-1.01
0.33
1.43
2.22
2.65
2.76
2.63
2.40
2.18
2.00
1.82
1.55
1.13
0.60
0.06
-0.36
-0.55
-0.49
-0.22
0.17
0.61
1.04
1.40
1.58
1.51
1.11
0.40
-0.53
-1.54
-2.53
-3.42
-4.18
-4.78
-5.15
-5.21
-4.86
-4.12
-3.10
-2.00
-1.00
-0.19
0.44
1.00
1.56
2.13
2.63
2.92
2.92
2.63
2.15
1.63
1.22
0.98
0.91
0.96
1.06
1.18
1.31
1.47
1.69
1.92
2.10
2.16
2.03
1.68
1.13
0.41
-0.45
-1.40
-2.39
-3.38
-4.26
-4.94
-5.31
-5.28
-4.78
-3.86
-2.62
-1.24
0.07
1.17
1.98
2.54
2.90
3.13
3.26
3.30
3.25
3.13
2.95
2.73
2.48
2.20
1.89
1.55
1.24
1.01
0.90
0.91
0.97
1.03
1.00
0.90
0.75
0.60
0.49
0.41
0.32
0.14
-0.20
-0.76
-1.55
-2.57
-3.72
-4.85
-5.77
-6.28
-6.24
-5.66
-4.65
-3.39
-2.07
-0.82
0.30
1.24
1.99
2.51
2.80
2.85
2.72
2.46
2.14
1.83
1.59
1.45
1.43
1.51
1.65
1.81
1.97
2.12
2.25
2.36
2.41
2.34
2.12
1.75
1.29
0.82
0.43
0.21
0.21
0.38
0.59
0.66
0.41
-0.27
-1.35
-2.66
-3.95
-4.99
-5.60
-5.74
-5.42
-4.67
-3.57
-2.20
-0.64
0.92
2.28
3.24
3.70
3.68
3.34
2.89
2.50
2.26
2.12
2.00
1.81
1.52
1.15
0.80
0.54
0.43
0.52
0.80
1.26
1.82
2.36
2.74
2.84
2.65
2.24
1.78
1.40
1.15
0.96
0.67
0.16
-0.57
-1.39
-2.12
-2.67
-3.06
-3.42
-3.87
-4.37
-4.77
-4.82
-4.36
-3.40
-2.13
-0.77
0.48
1.53
2.38
3.01
3.40
3.46
3.20
2.72
2.15
1.69
1.40
1.23
1.09
0.86
0.53
0.17
-0.10
-0.16
-0.00
0.28
0.54
0.66
0.58
0.36
0.12
-0.02
0.05
0.31
0.69
0.99
1.02
0.61
-0.30
-1.64
-3.20
-4.66
-5.70
-6.14
-5.91
-5.13
-4.01
-2.76
-1.53
-0.37
0.67
1.58
2.28
2.73
2.89
2.76
2.42
1.99
1.58
1.27
1.09
1.04
1.08
1.13
1.18
1.20
1.22
1.20
1.16
1.06
0.90
0.71
0.54
0.42
0.37
0.34
0.24
0.02
-0.37
-0.91
-1.54
-2.20
-2.86
-3.48
-4.00
-4.34
-4.43
-4.23
-3.73
-2.98
-2.04
-0.99
0.09
1.11
1.97
2.57
2.83
2.78
2.50
2.13
1.79
1.54
1.39
1.27
1.16
1.03
0.89
0.74
0.60
0.45
0.30
0.18
0.17
0.36
0.77
1.33
1.88
2.22
2.21
1.82
1.09
0.12
-1.02
-2.29
-3.63
-4.93
-5.97
-6.56
-6.53
-5.92
-4.89
-3.68
-2.46
-1.31
-0.23
0.82
1.80
2.61
3.15
3.32
3.15
2.76
2.33
1.98
1.80
1.76
1.77
1.73
1.59
1.36
1.11
0.93
0.90
1.01
1.22
1.46
1.68
1.85
1.93
1.91
1.75
1.44
1.00
0.51
0.05
-0.35
-0.71
-1.15
-1.81
-2.75
-3.89
-5.04
-5.90
-6.25
-5.96
-5.06
-3.70
-2.11
-0.49
0.95
2.08
2.80
3.12
3.12
2.95
2.73
2.51
2.28
1.99
1.63
1.20
0.80
0.51
0.40
0.44
0.59
0.80
1.04
1.28
1.48
1.62
1.67
1.61
1.48
1.31
1.10
0.85
0.52
0.09
-0.44
-1.01
-1.60
-2.22
-2.91
-3.69
-4.51
-5.19
-5.53
-5.35
-4.63
-3.47
-2.12
-0.78
0.42
1.43
2.25
2.86
3.22
3.26
2.98
2.43
1.77
1.18
0.77
0.60
0.58
0.59
0.51
0.31
0.03
-0.20
-0.23
-0.02
0.40
0.86
1.21
1.36
1.35
1.25
1.18
1.14
1.07
0.88
0.49
-0.13
-0.92
-1.80
-2.69
-3.54
-4.29
-4.87
-5.14
-4.99
-4.37
-3.34
-2.08
-0.80
0.31
1.15
1.71
2.06
2.27
2.38
2.39
2.28
2.06
1.80
1.56
1.35
1.19
1.06
0.95
0.89
0.88
0.93
0.96
0.93
0.83
0.72
0.69
0.81
1.05
1.30
1.43
1.33
1.01
0.57
0.07
-0.47
-1.12
-1.94
-2.92
-3.94
-4.80
-5.32
-5.36
-4.89
-4.03
-2.93
-1.79
-0.73
0.15
0.85
1.38
1.76
1.98
2.03
1.94
1.76
1.58
1.45
1.37
1.30
1.19
1.05
0.93
0.92
1.04
1.23
1.40
1.46
1.39
1.23
1.04
0.90
0.82
0.82
0.87
0.95
1.00
0.89
0.53
-0.18
-1.22
-2.46
-3.73
-4.82
-5.59
-5.94
-5.86
-5.36
-4.50
-3.39
-2.12
-0.83
0.39
1.45
2.28
2.84
3.10
3.09
2.85
2.47
2.03
1.60
1.26
1.06
1.02
1.13
1.31
1.47
1.53
1.52
1.51
1.62
1.92
2.34
2.74
2.95
2.86
2.48
1.93
1.34
0.82
0.41
0.11
-0.11
-0.32
-0.63
-1.17
-2.03
-3.17
-4.43
-5.50
-6.11
-6.10
-5.48
-4.41
-3.10
-1.74
-0.42
0.77
1.79
2.55
2.99
3.11
2.99
2.74
2.44
2.15
1.84
1.50
1.16
0.92
0.89
1.09
1.44
1.82
2.08
2.18
2.18
2.17
2.20
2.24
2.20
1.97
1.54
0.99
0.49
0.19
0.10
0.15
0.15
-0.05
-0.54
-1.33
-2.30
-3.31
-4.20
-4.82
-5.05
-4.87
-4.29
-3.41
-2.39
-1.33
-0.32
0.59
1.38
2.02
2.47
2.68
2.64
2.38
1.98
1.54
1.14
0.81
0.58
0.43
0.38
0.44
0.59
0.77
0.91
0.94
0.85
0.71
0.62
0.66
0.84
1.10
1.31
1.37
1.23
0.95
0.59
0.18
-0.29
-0.83
-1.48
-2.20
-2.93
-3.58
-4.04
-4.23
-4.10
-3.61
-2.82
-1.85
-0.86
-0.01
0.62
1.02
1.28
1.52
1.81
2.14
2.41
2.50
2.34
1.91
1.29
0.61
0.02
-0.36
-0.44
-0.19
0.35
1.07
1.80
2.37
2.67
2.68
2.45
2.07
1.60
1.06
0.49
-0.08
-0.53
-0.80
-0.94
-1.10
-1.49
-2.25
-3.33
-4.47
-5.36
-5.74
-5.58
-5.03
-4.31
-3.57
-2.81
-1.92
-0.83
0.43
1.68
2.69
3.25
3.29
2.92
2.34
1.76
1.31
1.01
0.81
0.66
0.56
0.56
0.72
1.09
1.59
2.08
2.39
2.41
2.10
1.56
0.90
0.30
-0.13
-0.31
-0.28
-0.14
-0.03
-0.10
-0.42
-0.99
-1.75
-2.61
-3.50
-4.36
-5.13
-5.70
-5.91
-5.64
-4.87
-3.69
-2.31
-0.97
0.18
1.11
1.83
2.38
2.75
2.88
2.73
2.34
1.82
1.33
1.03
0.94
1.02
1.17
1.31
1.41
1.50
1.57
1.60
1.57
1.41
1.15
0.82
0.51
0.29
0.16
0.09
0.02
-0.08
-0.24
-0.45
-0.72
-1.09
-1.60
-2.25
-3.00
-3.74
-4.31
-4.58
-4.47
-3.96
-3.14
-2.10
-1.03
-0.03
0.78
1.39
1.79
2.02
2.07
1.95
1.66
1.25
0.84
0.52
0.41
0.55
0.86
1.24
1.57
1.76
1.84
1.84
1.85
1.92
2.03
2.12
2.12
1.94
1.59
1.07
0.48
-0.11
-0.64
-1.07
-1.45
-1.83
-2.28
-2.83
-3.43
-3.99
-4.37
-4.47
-4.20
-3.60
-2.75
-1.76
-0.77
0.16
0.98
1.66
2.19
2.54
2.68
2.61
2.34
1.94
1.53
1.24
1.14
1.22
1.41
1.59
1.65
1.57
1.43
1.34
1.38
1.57
1.82
1.99
1.96
1.65
1.11
0.43
-0.23
-0.81
-1.30
-1.75
-2.27
-2.91
-3.66
-4.45
-5.11
-5.51
-5.53
-5.15
-4.39
-3.30
-1.97
-0.53
0.86
2.01
2.78
3.08
2.95
2.51
1.95
1.42
1.05
0.89
0.91
1.08
1.32
1.58
1.81
1.99
2.10
2.14
2.15
2.14
2.14
2.13
2.10
1.97
1.73
1.39
1.05
0.79
0.65
0.56
0.41
0.11
-0.35
-0.93
-1.54
-2.16
-2.79
-3.48
-4.20
-4.82
-5.15
-5.04
-4.43
-3.42
-2.20
-0.98
0.10
0.97
1.61
2.04
2.26
2.26
2.05
1.68
1.24
0.85
0.63
0.61
0.77
1.06
1.39
1.71
2.00
2.25
2.45
2.58
2.61
2.54
2.43
2.35
2.33
2.37
2.42
2.36
2.14
1.74
1.22
0.68
0.20
-0.20
-0.55
-0.89
-1.29
-1.78
-2.34
-2.97
-3.63
-4.25
-4.75
-5.02
-4.91
-4.38
-3.43
-2.23
-0.96
0.17
1.02
1.59
1.94
2.14
2.26
2.27
2.17
1.97
1.74
1.60
1.60
1.72
1.84
1.84
1.66
1.36
1.08
0.94
1.00
1.22
1.44
1.56
1.48
1.20
0.80
0.38
0.04
-0.11
-0.08
0.10
0.30
0.36
0.20
-0.19
-0.77
-1.43
-2.09
-2.76
-3.42
-4.04
-4.51
-4.70
-4.50
-3.94
-3.11
-2.18
-1.25
-0.38
0.43
1.19
1.84
2.31
2.52
2.45
2.18
1.81
1.49
1.27
1.17
1.16
1.18
1.23
1.32
1.43
1.53
1.57
1.52
1.37
1.16
0.95
0.78
0.68
0.65
0.64
0.63
0.55
0.39
0.16
-0.14
-0.46
-0.81
-1.20
-1.69
-2.31
-3.04
-3.76
-4.29
-4.49
-4.29
-3.72
-2.91
-2.02
-1.17
-0.47
0.02
0.32
0.49
0.63
0.83
1.14
1.51
1.84
1.99
1.91
1.67
1.39
1.25
1.31
1.50
1.67
1.71
1.59
1.41
1.28
1.28
1.38
1.48
1.48
1.31
1.02
0.67
0.33
0.05
-0.17
-0.34
-0.49
-0.69
-1.02
-1.55
-2.27
-3.09
-3.87
-4.43
-4.69
-4.62
-4.27
-3.72
-3.06
-2.36
-1.67
-1.00
-0.36
0.28
0.93
1.57
2.17
2.62
2.86
2.85
2.58
2.14
1.63
1.19
0.92
0.86
0.94
1.06
1.09
1.01
0.84
0.66
0.55
0.51
0.50
0.49
0.49
0.56
0.75
1.07
1.42
1.67
1.70
1.43
0.95
0.38
-0.10
-0.41
-0.55
-0.63
-0.83
-1.30
-2.09
-3.09
-4.07
-4.78
-5.00
-4.65
-3.81
-2.68
-1.51
-0.50
0.25
0.76
1.15
1.50
1.86
2.17
2.32
2.23
1.89
1.40
0.91
0.55
0.37
0.33
0.34
0.34
0.35
0.43
0.65
0.98
1.35
1.58
1.57
1.26
0.76
0.20
-0.20
-0.33
-0.17
0.17
0.53
0.73
0.69
0.42
-0.01
-0.50
-1.01
-1.58
-2.26
-3.05
-3.85
-4.47
-4.71
-4.45
-3.74
-2.73
-1.63
-0.61
0.31
1.14
1.91
2.56
3.00
3.09
2.80
2.21
1.49
0.85
0.41
0.21
0.17
0.22
0.31
0.44
0.66
0.99
1.40
1.79
2.05
2.10
1.93
1.57
1.13
0.69
0.31
0.00
-0.25
-0.47
-0.70
-0.94
-1.22
-1.59
-2.07
-2.66
-3.31
-3.94
-4.42
-4.66
-4.59
-4.18
-3.44
-2.44
-1.28
-0.11
0.92
1.71
2.21
2.44
2.45
2.31
2.04
1.63
1.11
0.57
0.13
-0.07
0.04
0.41
0.90
1.34
1.63
1.71
1.63
1.46
1.30
1.18
1.13
1.11
1.08
1.01
0.88
0.73
0.59
0.48
0.36
0.15
-0.22
-0.78
-1.49
-2.24
-2.91
-3.41
-3.74
-3.92
-3.95
-3.82
-3.49
-2.94
-2.18
-1.31
-0.38
0.53
1.35
2.03
2.50
2.68
2.55
2.16
1.63
1.13
0.81
0.73
0.88
1.14
1.39
1.51
1.47
1.29
1.09
1.00
1.10
1.38
1.70
1.88
1.78
1.39
0.83
0.32
0.04
0.07
0.35
0.67
0.86
0.81
0.50
0.02
-0.56
-1.25
-2.08
-3.07
-4.15
-5.08
-5.59
-5.45
-4.61
-3.25
-1.71
-0.34
0.66
1.22
1.45
1.48
1.42
1.32
1.23
1.19
1.24
1.40
1.66
1.91
2.04
1.97
1.70
1.32
0.94
0.65
0.50
0.46
0.51
0.65
0.87
1.17
1.50
1.74
1.80
1.62
1.22
0.71
0.19
-0.29
-0.76
-1.30
-1.95
-2.67
-3.35
-3.85
-4.06
-3.95
-3.58
-3.04
-2.43
-1.79
-1.16
-0.52
0.13
0.77
1.37
1.86
2.21
2.39
2.39
2.23
1.93
1.52
1.06
0.59
0.21
-0.03
-0.08
0.06
0.34
0.67
0.94
1.11
1.14
1.08
0.99
0.91
0.84
0.78
0.68
0.55
0.38
0.15
-0.19
-0.72
-1.45
-2.35
-3.26
-4.00
-4.42
-4.47
-4.18
-3.61
-2.81
-1.82
-0.70
0.45
1.45
2.18
2.58
2.70
2.64
2.48
2.26
1.95
1.55
1.11
0.71
0.44
0.36
0.45
0.62
0.78
0.86
0.87
0.87
0.95
1.14
1.40
1.64
1.74
1.65
1.42
1.15
0.95
0.85
0.76
0.53
0.02
-0.76
-1.70
-2.58
-3.24
-3.61
-3.75
-3.77
-3.76
-3.74
-3.65
-3.41
-3.00
-2.44
-1.83
-1.25
-0.76
-0.39
-0.14
-0.02
-0.02
-0.09
-0.16
-0.13
0.08
0.48
1.02
1.59
2.05
2.33
2.42
2.38
2.30
2.29
2.38
2.57
2.76
2.85
2.75
2.42
1.92
1.36
0.85
0.45
0.16
-0.08
-0.34
-0.71
-1.19
-1.79
-2.45
-3.12
-3.72
-4.17
-4.42
-4.41
-4.11
-3.50
-2.61
-1.49
-0.25
0.96
1.98
2.64
2.86
2.69
2.28
1.83
1.51
1.40
1.45
1.57
1.66
1.67
1.58
1.42
1.20
0.94
0.68
0.52
0.57
0.91
1.53
2.26
2.83
3.03
2.74
2.04
1.16
0.33
-0.27
-0.59
-0.71
-0.74
-0.78
-0.86
-0.99
-1.20
-1.49
-1.88
-2.36
-2.87
-3.31
-3.56
-3.56
-3.28
-2.75
-2.07
-1.30
-0.54
0.19
0.83
1.38
1.77
2.00
2.04
1.92
1.68
1.38
1.08
0.83
0.67
0.63
0.71
0.86
1.03
1.12
1.09
0.96
0.80
0.73
0.77
0.89
0.99
0.97
0.80
0.53
0.28
0.10
0.02
-0.03
-0.13
-0.33
-0.61
-0.95
-1.32
-1.73
-2.22
-2.79
-3.37
-3.85
-4.07
-3.92
-3.36
-2.46
-1.40
-0.34
0.56
1.22
1.62
1.80
1.80
1.66
1.43
1.14
0.88
0.71
0.70
0.83
1.04
1.22
1.31
1.31
1.28
1.29
1.37
1.48
1.53
1.49
1.37
1.27
1.28
1.40
1.54
1.52
1.23
0.62
-0.18
-1.02
-1.79
-2.43
-3.00
-3.54
-4.02
-4.37
-4.51
-4.40
-4.09
-3.66
-3.16
-2.59
-1.93
-1.15
-0.29
0.56
1.28
1.79
2.05
2.09
1.96
1.72
1.45
1.17
0.92
0.69
0.49
0.31
0.20
0.21
0.38
0.72
1.18
1.66
2.10
2.45
2.69
2.79
2.70
2.38
1.85
1.20
0.59
0.13
-0.15
-0.34
-0.58
-0.97
-1.54
-2.20
-2.81
-3.27
-3.52
-3.56
-3.42
-3.09
-2.59
-1.94
-1.17
-0.37
0.39
1.04
1.53
1.83
1.94
1.90
1.74
1.52
1.29
1.10
0.99
0.99
1.06
1.19
1.28
1.29
1.19
1.02
0.85
0.79
0.90
1.17
1.50
1.78
1.86
1.71
1.32
0.79
0.22
-0.28
-0.63
-0.81
-0.85
-0.82
-0.86
-1.08
-1.56
-2.29
-3.14
-3.95
-4.53
-4.75
-4.55
-3.94
-2.97
-1.75
-0.43
0.80
1.74
2.24
2.32
2.11
1.81
1.63
1.63
1.77
1.91
1.90
1.70
1.31
0.86
0.46
0.21
0.16
0.31
0.60
0.98
1.38
1.75
1.99
2.04
1.85
1.42
0.82
0.15
-0.45
-0.92
-1.22
-1.39
-1.46
-1.51
-1.61
-1.84
-2.27
-2.93
-3.70
-4.36
-4.67
-4.43
-3.66
-2.54
-1.36
-0.34
0.39
0.88
1.23
1.51
1.77
1.97
2.05
2.01
1.85
1.60
1.28
0.94
0.62
0.41
0.36
0.51
0.84
1.25
1.66
1.97
2.14
2.17
2.08
1.86
1.53
1.11
0.66
0.25
-0.08
-0.29
-0.45
-0.67
-1.07
-1.72
-2.59
-3.56
-4.42
-4.96
-5.03
-4.62
-3.81
-2.75
-1.59
-0.48
0.51
1.30
1.83
2.07
2.03
1.78
1.44
1.12
0.87
0.70
0.59
0.55
0.59
0.77
1.10
1.50
1.86
2.07
2.07
1.92
1.72
1.60
1.60
1.72
1.84
1.84
1.64
1.19
0.54
-0.23
-1.03
-1.77
-2.45
-3.05
-3.59
-4.03
-4.31
-4.35
-4.08
-3.54
-2.85
-2.17
-1.61
-1.17
-0.74
-0.21
0.52
1.38
2.23
2.87
3.15
3.02
2.57
1.94
1.28
0.72
0.36
0.24
0.34
0.59
0.87
1.06
1.11
1.02
0.90
0.88
1.02
1.27
1.50
1.52
1.22
0.61
-0.15
-0.91
-1.51
-1.92
-2.21
-2.49
-2.80
-3.16
-3.48
-3.67
-3.64
-3.29
-2.59
-1.59
-0.40
0.79
1.76
2.37
2.57
2.44
2.13
1.79
1.54
1.40
1.32
1.23
1.10
0.92
0.74
0.61
0.57
0.62
0.73
0.87
1.01
1.15
1.33
1.57
1.83
2.02
2.04
1.79
1.26
0.51
-0.28
-0.94
-1.37
-1.55
-1.57
-1.59
-1.75
-2.12
-2.65
-3.25
-3.78
-4.14
-4.24
-4.05
-3.58
-2.83
-1.88
-0.82
0.26
1.25
2.12
2.83
3.36
3.68
3.76
3.57
3.15
2.57
1.97
1.45
1.05
0.78
0.62
0.56
0.57
0.68
0.84
1.04
1.23
1.38
1.47
1.50
1.44
1.28
1.03
0.71
0.41
0.18
0.06
0.02
-0.02
-0.18
-0.58
-1.26
-2.18
-3.22
-4.19
-4.86
-5.06
-4.72
-3.92
-2.85
-1.74
-0.79
-0.05
0.50
0.94
1.32
1.61
1.80
1.85
1.79
1.66
1.54
1.43
1.34
1.24
1.11
0.95
0.79
0.65
0.57
0.57
0.66
0.85
1.12
1.40
1.60
1.63
1.47
1.17
0.84
0.56
0.39
0.31
0.23
0.02
-0.40
-1.08
-1.94
-2.86
-3.69
-4.31
-4.62
-4.59
-4.21
-3.50
-2.55
-1.44
-0.29
0.75
1.53
1.97
2.05
1.84
1.47
1.10
0.84
0.75
0.82
0.99
1.19
1.31
1.30
1.14
0.88
0.63
0.52
0.58
0.79
1.04
1.25
1.36
1.39
1.42
1.48
1.53
1.49
1.30
0.95
0.51
0.06
-0.37
-0.81
-1.34
-2.03
-2.87
-3.77
-4.56
-5.06
-5.14
-4.81
-4.14
-3.28
-2.35
-1.44
-0.57
0.25
1.00
1.61
1.99
2.09
1.94
1.64
1.34
1.12
1.01
0.96
0.90
0.85
0.87
1.05
1.39
1.83
2.21
2.34
2.18
1.78
1.32
0.97
0.83
0.87
0.97
1.05
1.02
0.93
0.83
0.77
0.76
0.76
0.70
0.48
0.02
-0.68
-1.55
-2.47
-3.29
-3.91
-4.25
-4.31
-4.08
-3.57
-2.81
-1.85
-0.81
0.15
0.90
1.36
1.54
1.48
1.27
0.98
0.72
0.57
0.57
0.72
0.95
1.15
1.24
1.23
1.20
1.24
1.41
1.68
2.00
2.27
2.46
2.53
2.50
2.34
2.05
1.65
1.21
0.85
0.65
0.62
0.69
0.71
0.59
0.33
0.01
-0.27
-0.45
-0.59
-0.84
-1.31
-2.03
-2.86
-3.59
-4.02
-4.06
-3.74
-3.15
-2.42
-1.62
-0.81
-0.03
0.67
1.25
1.64
1.86
1.94
1.93
1.88
1.79
1.66
1.45
1.14
0.74
0.30
-0.09
-0.33
-0.35
-0.12
0.33
0.93
1.54
2.01
2.23
2.14
1.81
1.37
0.99
0.80
0.80
0.91
0.99
0.93
0.67
0.22
-0.38
-1.09
-1.90
-2.77
-3.65
-4.42
-4.94
-5.13
-4.94
-4.41
-3.64
-2.75
-1.81
-0.88
-0.03
0.67
1.17
1.42
1.45
1.31
1.10
0.89
0.73
0.61
0.54
0.52
0.55
0.62
0.70
0.75
0.75
0.72
0.73
0.83
1.06
1.39
1.71
1.91
1.92
1.73
1.41
1.05
0.74
0.49
0.26
0.00
-0.34
-0.79
-1.32
-1.92
-2.56
-3.21
-3.78
-4.21
-4.40
-4.31
-3.97
-3.44
-2.77
-1.98
-1.06
-0.05
0.95
1.80
2.35
2.53
2.39
2.06
1.69
1.35
1.05
0.76
0.49
0.30
0.28
0.47
0.84
1.28
1.68
1.96
2.14
2.26
2.34
2.35
2.22
1.91
1.45
0.95
0.53
0.25
0.09
-0.09
-0.42
-0.98
-1.79
-2.75
-3.76
-4.70
-5.46
-5.93
-6.05
-5.76
-5.11
-4.18
-3.07
-1.92
-0.80
0.23
1.09
1.70
2.03
2.06
1.89
1.66
1.49
1.43
1.41
1.33
1.15
0.88
0.65
0.58
0.75
1.12
1.56
1.91
2.05
1.96
1.71
1.41
1.17
1.05
1.07
1.23
1.46
1.72
1.92
1.97
1.78
1.29
0.52
-0.44
-1.43
-2.33
-3.05
-3.56
-3.90
-4.11
-4.22
-4.20
-4.01
-3.60
-2.93
-2.05
-1.03
0.02
1.00
1.85
2.48
2.84
2.87
2.55
1.96
1.25
0.64
0.28
0.21
0.37
0.58
0.71
0.69
0.62
0.58
0.70
0.97
1.33
1.70
1.97
2.12
2.12
1.97
1.64
1.09
0.33
-0.56
-1.43
-2.11
-2.50
-2.65
-2.71
-2.86
-3.21
-3.71
-4.19
-4.40
-4.17
-3.46
-2.38
-1.13
0.11
1.19
2.04
2.65
3.01
3.12
3.00
2.68
2.27
1.88
1.62
1.49
1.41
1.28
0.99
0.59
0.20
-0.02
0.02
0.31
0.70
1.05
1.24
1.28
1.24
1.21
1.23
1.26
1.19
0.96
0.50
-0.16
-0.97
-1.85
-2.70
-3.43
-3.97
-4.27
-4.32
-4.11
-3.68
-3.08
-2.37
-1.58
-0.77
0.03
0.76
1.38
1.88
2.26
2.54
2.69
2.67
2.42
1.93
1.26
0.56
0.03
-0.17
0.01
0.49
1.06
1.53
1.78
1.81
1.68
1.49
1.29
1.13
1.03
1.01
1.03
1.05
0.95
0.62
0.03
-0.80
-1.75
-2.69
-3.50
-4.13
-4.56
-4.78
-4.75
-4.45
-3.85
-3.01
-2.03
-1.03
-0.11
0.69
1.33
1.81
2.09
2.15
2.01
1.75
1.46
1.24
1.14
1.17
1.26
1.39
1.52
1.67
1.81
1.91
1.97
1.99
2.03
2.11
2.22
2.25
2.12
1.78
1.28
0.78
0.44
0.32
0.33
0.30
0.05
-0.51
-1.35
-2.32
-3.28
-4.08
-4.67
-5.01
-5.05
-4.73
-4.03
-3.01
-1.82
-0.69
0.21
0.80
1.14
1.35
1.54
1.74
1.90
1.91
1.77
1.52
1.29
1.15
1.14
1.18
1.20
1.20
1.21
1.31
1.52
1.80
2.07
2.20
2.17
2.00
1.79
1.60
1.49
1.44
1.42
1.40
1.35
1.25
1.02
0.63
0.05
-0.68
-1.50
-2.32
-3.07
-3.75
-4.35
-4.88
-5.26
-5.42
-5.29
-4.83
-4.07
-3.09
-2.03
-0.98
-0.02
0.80
1.48
1.99
2.33
2.50
2.50
2.38
2.17
1.92
1.67
1.46
1.33
1.31
1.41
1.61
1.86
2.11
2.33
2.46
2.49
2.40
2.17
1.84
1.46
1.11
0.87
0.78
0.82
0.90
0.95
0.92
0.80
0.58
0.28
-0.14
-0.70
-1.39
-2.18
-2.98
-3.70
-4.26
-4.63
-4.79
-4.76
-4.55
-4.16
-3.57
-2.79
-1.85
-0.80
0.26
1.23
2.00
2.51
2.72
2.68
2.43
2.07
1.70
1.37
1.11
0.91
0.71
0.47
0.21
-0.01
-0.08
0.07
0.42
0.85
1.19
1.31
1.20
0.95
0.71
0.63
0.74
0.99
1.28
1.50
1.52
1.26
0.65
-0.31
-1.55
-2.91
-4.14
-5.02
-5.40
-5.24
-4.60
-3.63
-2.51
-1.40
-0.41
0.40
1.06
1.59
2.01
2.32
2.47
2.46
2.30
2.06
1.78
1.48
1.13
0.70
0.25
-0.12
-0.24
-0.04
0.44
1.02
1.50
1.77
1.80
1.66
1.45
1.24
1.02
0.80
0.59
0.41
0.28
0.18
0.01
-0.32
-0.89
-1.74
-2.77
-3.87
-4.82
-5.44
-5.54
-5.06
-4.08
-2.81
-1.54
-0.52
0.14
0.46
0.58
0.65
0.77
0.94
1.13
1.27
1.36
1.41
1.44
1.44
1.37
1.20
0.94
0.65
0.44
0.42
0.65
1.09
1.61
2.06
2.27
2.22
1.94
1.58
1.26
1.06
0.93
0.77
0.47
-0.07
-0.84
-1.79
-2.84
-3.84
-4.68
-5.20
-5.29
-4.91
-4.13
-3.13
-2.09
-1.18
-0.42
0.21
0.76
1.22
1.54
1.69
1.68
1.58
1.48
1.42
1.35
1.22
1.00
0.75
0.60
0.65
0.91
1.29
1.61
1.77
1.78
1.71
1.66
1.66
1.66
1.59
1.40
1.14
0.87
0.59
0.24
-0.30
-1.13
-2.23
-3.40
-4.43
-5.10
-5.36
-5.25
-4.91
-4.42
-3.82
-3.08
-2.21
-1.25
-0.30
0.53
1.19
1.70
2.11
2.46
2.69
2.76
2.62
2.33
1.99
1.71
1.54
1.46
1.42
1.38
1.38
1.46
1.65
1.89
2.08
2.10
1.93
1.62
1.30
1.04
0.87
0.73
0.53
0.25
-0.09
-0.45
-0.79
-1.12
-1.51
-2.01
-2.62
-3.27
-3.86
-4.26
-4.40
-4.24
-3.76
-2.97
-1.90
-0.64
0.69
1.89
2.82
3.35
3.45
3.20
2.74
2.24
1.82
1.54
1.38
1.30
1.26
1.26
1.33
1.50
1.73
1.92
1.96
1.82
1.56
1.31
1.18
1.21
1.33
1.43
1.43
1.32
1.15
0.95
0.70
0.32
-0.22
-0.94
-1.76
-2.57
-3.30
-3.89
-4.35
-4.66
-4.77
-4.61
-4.12
-3.33
-2.35
-1.31
-0.34
0.51
1.26
1.91
2.43
2.73
2.74
2.43
1.87
1.22
0.63
0.20
-0.01
-0.01
0.15
0.45
0.83
1.22
1.55
1.75
1.80
1.75
1.66
1.57
1.51
1.44
1.31
1.12
0.87
0.60
0.31
-0.04
-0.46
-0.98
-1.63
-2.36
-3.13
-3.83
-4.35
-4.57
-4.39
-3.82
-2.92
-1.83
-0.71
0.35
1.27
1.98
2.41
2.51
2.29
1.85
1.39
1.07
0.99
1.09
1.23
1.28
1.18
0.99
0.82
0.77
0.84
0.97
1.10
1.17
1.20
1.21
1.18
1.10
0.90
0.60
0.22
-0.14
-0.41
-0.57
-0.73
-1.07
-1.70
-2.66
-3.79
-4.82
-5.47
-5.58
-5.17
-4.39
-3.38
-2.27
-1.09
0.10
1.20
2.08
2.56
2.66
2.45
2.13
1.88
1.72
1.63
1.50
1.28
1.03
0.83
0.81
1.00
1.34
1.74
2.07
2.27
2.32
2.24
2.09
1.92
1.77
1.61
1.43
1.19
0.87
0.47
-0.02
-0.63
-1.37
-2.22
-3.11
-3.98
-4.73
-5.30
-5.63
-5.70
-5.48
-4.97
-4.20
-3.22
-2.13
-1.00
0.07
1.03
1.82
2.37
2.70
2.81
2.79
2.72
2.65
2.56
2.41
2.16
1.84
1.50
1.22
1.04
0.96
0.97
1.04
1.20
1.45
1.77
2.08
2.29
2.32
2.17
1.86
1.47
1.07
0.69
0.34
-0.00
-0.34
-0.67
-1.02
-1.43
-1.95
-2.61
-3.38
-4.18
-4.87
-5.29
-5.32
-4.93
-4.16
-3.12
-1.94
-0.73
0.41
1.38
2.09
2.45
2.46
2.19
1.78
1.38
1.12
1.01
1.03
1.10
1.19
1.28
1.36
1.41
1.43
1.42
1.42
1.51
1.76
2.14
2.57
2.88
2.92
2.67
2.21
1.67
1.20
0.87
0.68
0.57
0.46
0.30
0.01
-0.46
-1.17
-2.09
-3.16
-4.23
-5.13
-5.69
-5.79
-5.38
-4.51
-3.28
-1.87
-0.49
0.68
1.51
1.99
2.17
2.17
2.09
1.97
1.81
1.58
1.30
0.99
0.74
0.59
0.55
0.56
0.53
0.41
0.23
0.10
0.14
0.41
0.83
1.28
1.58
1.66
1.51
1.21
0.85
0.50
0.17
-0.16
-0.51
-0.87
-1.21
-1.55
-1.90
-2.32
-2.85
-3.46
-4.06
-4.51
-4.66
-4.43
-3.81
-2.86
-1.66
-0.36
0.94
2.07
2.91
3.35
3.35
3.00
2.44
1.85
1.38
1.06
0.86
0.67
0.47
0.26
0.10
0.08
0.25
0.56
0.93
1.30
1.59
1.79
1.94
2.05
2.10
2.06
1.89
1.62
1.29
0.98
0.71
0.43
0.04
-0.53
-1.33
-2.30
-3.30
-4.21
-4.89
-5.25
-5.25
-4.90
-4.22
-3.30
-2.22
-1.11
-0.06
0.87
1.65
2.26
2.69
2.88
2.81
2.47
1.94
1.35
0.86
0.57
0.50
0.57
0.65
0.67
0.65
0.66
0.77
1.02
1.30
1.49
1.52
1.37
1.12
0.89
0.76
0.71
0.71
0.69
0.63
0.54
0.46
0.37
0.19
-0.21
-0.89
-1.88
-3.03
-4.16
-5.04
-5.50
-5.50
-5.06
-4.25
-3.13
-1.80
-0.37
1.00
2.08
2.75
2.94
2.76
2.36
1.94
1.57
1.25
0.96
0.71
0.57
0.60
0.80
1.07
1.27
1.27
1.08
0.82
0.67
0.75
1.04
1.42
1.73
1.87
1.82
1.66
1.51
1.39
1.29
1.14
0.90
0.54
0.10
-0.38
-0.91
-1.51
-2.26
-3.18
-4.19
-5.09
-5.65
-5.66
-5.07
-3.99
-2.68
-1.38
-0.28
0.60
1.30
1.87
2.32
2.62
2.72
2.62
2.40
2.13
1.88
1.65
1.40
1.13
0.85
0.64
0.54
0.60
0.74
0.92
1.06
1.13
1.12
1.08
1.01
0.95
0.89
0.83
0.75
0.62
0.43
0.17
-0.19
-0.66
-1.25
-1.97
-2.82
-3.72
-4.58
-5.28
-5.64
-5.53
-4.91
-3.84
-2.50
-1.12
0.09
1.00
1.62
2.05
2.37
2.59
2.65
2.49
2.12
1.62
1.17
0.92
0.91
1.09
1.35
1.54
1.61
1.58
1.51
1.43
1.36
1.27
1.11
0.86
0.53
0.18
-0.09
-0.20
-0.15
0.01
0.12
0.01
-0.43
-1.21
-2.25
-3.36
-4.30
-4.90
-5.06
-4.81
-4.22
-3.41
-2.46
-1.48
-0.53
0.28
0.90
1.28
1.47
1.54
1.58
1.60
1.57
1.42
1.10
0.70
0.37
0.33
0.66
1.30
2.04
2.63
2.87
2.72
2.28
1.71
1.16
0.73
0.41
0.16
-0.05
-0.22
-0.39
-0.59
-0.90
-1.37
-2.04
-2.86
-3.71
-4.45
-4.92
-5.01
-4.67
-3.94
-2.92
-1.76
-0.59
0.45
1.27
1.84
2.14
2.20
2.13
1.98
1.84
1.73
1.63
1.48
1.26
0.98
0.75
0.66
0.78
1.07
1.44
1.73
1.87
1.84
1.67
1.42
1.13
0.86
0.66
0.59
0.65
0.75
0.74
0.43
-0.24
-1.25
-2.42
-3.52
-4.36
-4.84
-4.98
-4.80
-4.35
-3.63
-2.68
-1.54
-0.31
0.87
1.88
2.61
3.01
3.11
2.96
2.69
2.40
2.20
2.09
2.03
1.94
1.73
1.37
0.93
0.50
0.19
0.10
0.25
0.62
1.10
1.59
1.95
2.11
2.05
1.84
1.58
1.38
1.23
1.08
0.82
0.39
-0.20
-0.89
-1.60
-2.28
-2.92
-3.51
-4.03
-4.37
-4.44
-4.15
-3.49
-2.54
-1.44
-0.33
0.72
1.61
2.31
2.76
2.95
2.86
2.54
2.06
1.51
1.00
0.60
0.34
0.25
0.31
0.46
0.66
0.85
1.04
1.25
1.50
1.76
1.97
2.05
1.99
1.86
1.75
1.75
1.86
1.96
1.93
1.71
1.33
0.90
0.55
0.32
0.18
0.03
-0.23
-0.66
-1.26
-2.00
-2.82
-3.66
-4.38
-4.85
-4.95
-4.65
-3.98
-3.04
-1.99
-0.93
0.03
0.84
1.41
1.71
1.72
1.51
1.19
0.91
0.75
0.75
0.87
1.03
1.13
1.16
1.09
0.95
0.77
0.59
0.45
0.39
0.46
0.67
1.01
1.39
1.69
1.84
1.80
1.60
1.35
1.12
0.93
0.75
0.51
0.17
-0.31
-0.91
-1.63
-2.45
-3.33
-4.16
-4.78
-5.02
-4.76
-3.99
-2.87
-1.63
-0.50
0.38
0.97
1.29
1.44
1.44
1.31
1.06
0.72
0.37
0.11
0.02
0.12
0.36
0.63
0.85
0.99
1.07
1.16
1.28
1.43
1.56
1.63
1.61
1.51
1.35
1.17
0.99
0.86
0.79
0.79
0.83
0.90
0.95
0.96
0.88
0.66
0.25
-0.36
-1.14
-2.01
-2.88
-3.64
-4.24
-4.65
-4.81
-4.67
-4.17
-3.31
-2.17
-0.91
0.24
1.13
1.68
1.90
1.91
1.80
1.66
1.53
1.43
1.34
1.26
1.19
1.14
1.09
1.03
0.93
0.78
0.57
0.37
0.26
0.29
0.45
0.67
0.83
0.82
0.65
0.38
0.16
0.09
0.20
0.46
0.78
1.08
1.29
1.36
1.23
0.89
0.36
-0.27
-0.93
-1.55
-2.15
-2.76
-3.39
-3.97
-4.37
-4.43
-4.09
-3.41
-2.52
-1.60
-0.76
-0.04
0.56
1.07
1.47
1.73
1.83
1.77
1.59
1.37
1.19
1.09
1.04
0.98
0.82
0.52
0.14
-0.22
-0.40
-0.31
0.06
0.60
1.16
1.59
1.79
1.71
1.38
0.90
0.37
-0.08
-0.34
-0.35
-0.12
0.28
0.71
1.03
1.14
0.95
0.43
-0.38
-1.39
-2.45
-3.40
-4.10
-4.49
-4.57
-4.40
-4.05
-3.55
-2.91
-2.11
-1.17
-0.14
0.88
1.76
2.40
2.74
2.73
2.43
1.91
1.31
0.77
0.40
0.27
0.35
0.59
0.87
1.10
1.20
1.18
1.08
0.94
0.83
0.76
0.76
0.81
0.88
0.95
1.00
0.96
0.81
0.54
0.16
-0.27
-0.64
-0.87
-0.91
-0.80
-0.62
-0.52
-0.62
-1.02
-1.71
-2.60
-3.52
-4.25
-4.60
-4.45
-3.79
-2.72
-1.42
-0.11
0.99
1.77
2.19
2.33
2.29
2.13
1.92
1.67
1.41
1.20
1.06
0.98
0.90
0.75
0.46
0.08
-0.27
-0.41
-0.25
0.21
0.88
1.57
2.12
2.45
2.53
2.39
2.07
1.62
1.06
0.43
-0.22
-0.87
-1.45
-1.90
-2.21
-2.39
-2.51
-2.65
-2.88
-3.19
-3.53
-3.75
-3.75
-3.48
-2.98
-2.30
-1.49
-0.59
0.38
1.34
2.14
2.68
2.90
2.83
2.58
2.24
1.86
1.43
0.95
0.47
0.08
-0.13
-0.15
-0.02
0.16
0.31
0.44
0.58
0.76
0.96
1.09
1.10
0.97
0.78
0.62
0.58
0.63
0.68
0.60
0.28
-0.32
-1.14
-2.07
-2.96
-3.71
-4.21
-4.40
-4.23
-3.74
-3.01
-2.18
-1.38
-0.68
-0.05
0.59
1.29
2.00
2.56
2.82
2.70
2.26
1.70
1.25
1.07
1.16
1.38
1.55
1.51
1.22
0.76
0.28
-0.08
-0.20
-0.07
0.27
0.70
1.09
1.34
1.42
1.39
1.29
1.21
1.15
1.08
0.94
0.70
0.31
-0.24
-0.96
-1.83
-2.77
-3.69
-4.43
-4.88
-4.97
-4.73
-4.21
-3.50
-2.69
-1.78
-0.80
0.20
1.14
1.92
2.45
2.67
2.62
2.35
1.95
1.49
1.04
0.65
0.38
0.27
0.33
0.55
0.85
1.16
1.40
1.55
1.61
1.63
1.62
1.58
1.48
1.28
1.00
0.70
0.46
0.33
0.30
0.28
0.13
-0.28
-0.99
-1.94
-2.96
-3.86
-4.46
-4.69
-4.54
-4.08
-3.38
-2.52
-1.52
-0.45
0.62
1.53
2.15
2.41
2.34
2.10
1.86
1.73
1.71
1.69
1.59
1.37
1.12
0.94
0.86
0.79
0.66
0.44
0.23
0.15
0.32
0.68
1.07
1.30
1.30
1.10
0.81
0.56
0.35
0.09
-0.33
-0.95
-1.74
-2.60
-3.42
-4.08
-4.48
-4.55
-4.25
-3.63
-2.80
-1.89
-1.03
-0.28
0.37
0.97
1.58
2.16
2.65
2.92
2.88
2.51
1.89
1.14
0.43
-0.11
-0.41
-0.47
-0.33
-0.07
0.26
0.63
1.00
1.33
1.56
1.61
1.45
1.10
0.68
0.33
0.17
0.21
0.35
0.39
0.15
-0.46
-1.37
-2.40
-3.32
-3.97
-4.28
-4.27
-3.97
-3.42
-2.63
-1.67
-0.63
0.33
1.11
1.61
1.85
1.92
1.92
1.94
2.02
2.13
2.21
2.20
2.09
1.88
1.65
1.50
1.46
1.54
1.66
1.72
1.65
1.45
1.13
0.78
0.44
0.14
-0.09
-0.27
-0.41
-0.56
-0.76
-1.05
-1.48
-2.01
-2.59
-3.12
-3.54
-3.78
-3.80
-3.57
-3.12
-2.48
-1.74
-0.99
-0.33
0.20
0.57
0.83
1.00
1.14
1.26
1.40
1.56
1.73
1.89
2.02
2.08
2.04
1.89
1.64
1.34
1.02
0.78
0.65
0.69
0.92
1.29
1.72
2.09
2.27
2.20
1.87
1.38
0.84
0.40
0.15
0.10
0.18
0.28
0.28
0.07
-0.39
-1.06
-1.87
-2.69
-3.41
-3.91
-4.19
-4.24
-4.09
-3.74
-3.17
-2.35
-1.30
-0.15
0.96
1.84
2.37
2.52
2.35
2.02
1.65
1.37
1.23
1.22
1.31
1.44
1.59
1.71
1.81
1.90
2.01
2.15
2.30
2.40
2.39
2.23
1.93
1.54
1.17
0.90
0.76
0.72
0.71
0.69
0.64
0.58
0.51
0.41
0.24
-0.06
-0.43
-0.83
-1.18
-1.47
-1.79
-2.25
-2.92
-3.75
-4.55
-5.10
-5.20
-4.78
-3.92
-2.79
-1.58
-0.44
0.54
1.31
1.86
2.19
2.30
2.23
2.05
1.85
1.71
1.66
1.72
1.83
1.96
2.06
2.12
2.14
2.13
2.11
2.09
2.07
2.03
1.96
1.82
1.61
1.36
1.08
0.84
0.64
0.47
0.29
0.04
-0.25
-0.53
-0.72
-0.78
-0.69
-0.57
-0.54
-0.76
-1.28
-2.05
-2.95
-3.78
-4.39
-4.66
-4.54
-4.07
-3.32
-2.42
-1.48
-0.60
0.17
0.80
1.31
1.69
1.94
2.04
1.98
1.78
1.49
1.19
0.99
0.95
1.06
1.26
1.45
1.56
1.55
1.43
1.25
1.03
0.78
0.53
0.31
0.16
0.11
0.14
0.18
0.18
0.10
-0.03
-0.16
-0.23
-0.22
-0.20
-0.25
-0.45
-0.85
-1.41
-2.08
-2.76
-3.37
-3.83
-4.10
-4.13
-3.92
-3.47
-2.80
-1.94
-0.96
0.04
0.95
1.66
2.10
2.26
2.14
1.82
1.36
0.84
0.35
-0.01
-0.18
-0.13
0.16
0.62
1.15
1.66
2.01
2.13
1.99
1.64
1.23
0.91
0.80
0.90
1.12
1.27
1.22
0.93
0.47
0.00
-0.32
-0.40
-0.26
-0.03
0.16
0.14
-0.16
-0.74
-1.56
-2.51
-3.46
-4.28
-4.81
-4.92
-4.56
-3.74
-2.59
-1.31
-0.12
0.80
1.37
1.63
1.69
1.69
1.74
1.87
1.98
1.96
1.69
1.15
0.45
-0.26
-0.76
-0.91
-0.65
-0.05
0.74
1.52
2.10
2.38
2.33
2.04
1.64
1.27
1.00
0.84
0.73
0.61
0.44
0.23
0.00
-0.19
-0.36
-0.53
-0.78
-1.21
-1.84
-2.62
-3.41
-4.04
-4.38
-4.42
-4.23
-3.92
-3.54
-3.04
-2.33
-1.35
-0.16
1.05
2.07
2.73
3.04
3.06
2.90
2.60
2.16
1.61
1.01
0.51
0.24
0.26
0.48
0.78
1.00
1.09
1.11
1.18
1.39
1.76
2.19
2.56
2.71
2.59
2.19
1.59
0.90
0.21
-0.40
-0.93
-1.36
-1.72
-2.02
-2.34
-2.72
-3.19
-3.75
-4.28
-4.66
-4.76
-4.51
-3.94
-3.09
-2.05
-0.91
0.24
1.31
2.19
2.77
3.01
2.92
2.60
2.19
1.81
1.52
1.31
1.12
0.90
0.69
0.53
0.48
0.57
0.77
1.03
1.30
1.53
1.71
1.83
1.86
1.82
1.71
1.57
1.41
1.24
1.05
0.81
0.50
0.10
-0.45
-1.19
-2.15
-3.27
-4.41
-5.31
-5.76
-5.63
-4.98
-3.98
-2.86
-1.76
-0.73
0.24
1.12
1.86
2.36
2.53
2.41
2.11
1.81
1.64
1.61
1.62
1.55
1.34
1.04
0.80
0.74
0.90
1.18
1.40
1.43
1.20
0.78
0.28
-0.19
-0.52
-0.69
-0.64
-0.40
0.02
0.47
0.78
0.73
0.21
-0.75
-1.98
-3.22
-4.24
-4.86
-5.02
-4.74
-4.06
-3.08
-1.92
-0.72
0.35
1.17
1.70
1.97
2.09
2.16
2.23
2.30
2.30
2.19
1.94
1.58
1.22
0.94
0.80
0.84
1.00
1.19
1.36
1.45
1.46
1.41
1.30
1.15
0.97
0.83
0.76
0.80
0.91
1.02
1.02
0.84
0.43
-0.17
-0.91
-1.74
-2.61
-3.45
-4.18
-4.68
-4.82
-4.55
-3.88
-2.93
-1.87
-0.83
0.09
0.87
1.51
2.00
2.33
2.47
2.40
2.14
1.74
1.32
0.97
0.78
0.79
0.96
1.22
1.44
1.50
1.37
1.10
0.80
0.59
0.57
0.74
1.04
1.38
1.68
1.88
1.96
1.87
1.57
0.98
0.09
-1.07
-2.32
-3.47
-4.32
-4.76
-4.82
-4.56
-4.07
-3.42
-2.64
-1.75
-0.83
0.05
0.80
1.38
1.77
1.99
2.03
1.89
1.60
1.20
0.79
0.48
0.35
0.42
0.64
0.92
1.17
1.32
1.36
1.31
1.22
1.13
1.07
1.05
1.08
1.18
1.33
1.53
1.65
1.57
1.19
0.43
-0.63
-1.86
-3.03
-3.95
-4.50
-4.64
-4.43
-3.97
-3.35
-2.64
-1.88
-1.06
-0.20
0.65
1.38
1.92
2.22
2.29
2.21
2.05
1.82
1.55
1.25
0.95
0.70
0.56
0.55
0.64
0.76
0.85
0.84
0.74
0.58
0.40
0.27
0.23
0.30
0.45
0.62
0.72
0.66
0.41
-0.05
-0.66
-1.37
-2.10
-2.78
-3.35
-3.74
-3.88
-3.74
-3.28
-2.54
-1.57
-0.52
0.43
1.12
1.48
1.54
1.40
1.21
1.11
1.12
1.21
1.28
1.21
0.97
0.61
0.26
0.10
0.24
0.65
1.20
1.71
2.01
2.08
1.98
1.82
1.71
1.64
1.57
1.42
1.15
0.80
0.44
0.14
-0.10
-0.33
-0.62
-1.04
-1.58
-2.15
-2.67
-3.09
-3.40
-3.67
-3.92
-4.13
-4.20
-3.99
-3.40
-2.47
-1.33
-0.19
0.75
1.43
1.85
2.09
2.19
2.16
1.98
1.64
1.19
0.72
0.35
0.19
0.24
0.48
0.83
1.21
1.58
1.90
2.16
2.32
2.37
2.33
2.22
2.08
1.95
1.84
1.73
1.59
1.39
1.10
0.75
0.40
0.11
-0.07
-0.15
-0.19
-0.27
-0.47
-0.84
-1.39
-2.14
-3.05
-4.03
-4.94
-5.59
-5.83
-5.58
-4.91
-3.96
-2.88
-1.79
-0.71
0.32
1.25
1.98
2.40
2.46
2.22
1.83
1.45
1.24
1.21
1.29
1.37
1.34
1.20
1.02
0.98
1.19
1.69
2.38
3.03
3.39
3.34
2.89
2.23
1.61
1.21
1.09
1.16
1.30
1.39
1.36
1.21
0.95
0.63
0.30
0.00
-0.22
-0.35
-0.44
-0.60
-0.96
-1.59
-2.45
-3.41
-4.33
-5.05
-5.51
-5.68
-5.55
-5.09
-4.31
-3.22
-1.93
-0.59
0.60
1.49
1.98
2.08
1.87
1.51
1.14
0.86
0.72
0.71
0.75
0.81
0.86
0.87
0.87
0.86
0.88
0.96
1.14
1.43
1.81
2.17
2.39
2.43
2.29
2.06
1.85
1.71
1.61
1.49
1.27
0.92
0.47
-0.01
-0.44
-0.83
-1.20
-1.58
-2.04
-2.59
-3.23
-3.88
-4.41
-4.71
-4.68
-4.34
-3.74
-2.97
-2.08
-1.09
0.00
1.12
2.13
2.82
3.04
2.79
2.19
1.47
0.84
0.46
0.37
0.52
0.82
1.17
1.49
1.71
1.79
1.73
1.62
1.51
1.46
1.46
1.46
1.42
1.32
1.21
1.12
1.06
1.00
0.87
0.63
0.29
-0.12
-0.55
-1.00
-1.55
-2.23
-3.07
-3.98
-4.81
-5.36
-5.50
-5.18
-4.48
-3.53
-2.46
-1.40
-0.39
0.50
1.28
1.87
2.24
2.36
2.23
1.96
1.66
1.46
1.45
1.56
1.70
1.72
1.56
1.26
0.97
0.85
1.00
1.43
1.98
2.46
2.71
2.64
2.28
1.75
1.20
0.74
0.43
0.26
0.13
-0.10
-0.56
-1.31
-2.33
-3.51
-4.67
-5.67
-6.35
-6.63
-6.46
-5.82
-4.74
-3.32
-1.76
-0.29
0.89
1.69
2.14
2.36
2.45
2.43
2.31
2.08
1.77
1.48
1.27
1.20
1.22
1.27
1.31
1.35
1.40
1.47
1.53
1.55
1.52
1.48
1.48
1.54
1.66
1.75
1.74
1.59
1.27
0.81
0.23
-0.46
-1.23
-2.06
-2.88
-3.64
-4.29
-4.74
-4.94
-4.78
-4.24
-3.32
-2.11
-0.75
0.54
1.59
2.25
2.49
2.34
1.92
1.39
0.89
0.56
0.47
0.61
0.90
1.24
1.50
1.62
1.60
1.51
1.48
1.59
1.85
2.18
2.46
2.56
2.46
2.17
1.79
1.42
1.16
1.02
0.96
0.90
0.70
0.24
-0.57
-1.69
-3.00
-4.25
-5.21
-5.68
-5.60
-5.01
-4.07
-2.94
-1.77
-0.68
0.26
1.01
1.55
1.89
2.07
2.11
2.04
1.85
1.53
1.11
0.63
0.22
-0.01
0.03
0.35
0.88
1.46
1.95
2.20
2.15
1.81
1.27
0.70
0.27
0.08
0.17
0.42
0.67
0.74
0.52
0.02
-0.72
-1.60
-2.54
-3.43
-4.16
-4.58
-4.56
-4.06
-3.22
-2.23
-1.34
-0.65
-0.15
0.32
0.87
1.50
2.11
2.53
2.66
2.52
2.25
1.95
1.68
1.39
1.03
0.63
0.25
0.03
0.05
0.28
0.59
0.81
0.86
0.75
0.56
0.42
0.41
0.50
0.62
0.63
0.44
0.01
-0.65
-1.49
-2.42
-3.37
-4.23
-4.86
-5.11
-4.85
-4.04
-2.77
-1.26
0.23
1.48
2.37
2.87
3.02
2.85
2.42
1.80
1.10
0.48
0.05
-0.11
-0.02
0.18
0.37
0.44
0.42
0.39
0.44
0.59
0.83
1.04
1.15
1.16
1.09
0.99
0.89
0.71
0.38
-0.17
-0.92
-1.80
-2.66
-3.39
-3.95
-4.32
-4.51
-4.51
-4.25
-3.65
-2.71
-1.52
-0.27
0.80
1.53
1.89
1.98
2.01
2.09
2.26
2.42
2.44
2.25
1.93
1.58
1.34
1.28
1.36
1.49
1.56
1.53
1.41
1.29
1.24
1.29
1.42
1.55
1.59
1.46
1.11
0.54
-0.23
-1.14
-2.11
-3.06
-3.91
-4.59
-5.02
-5.17
-5.04
-4.67
-4.12
-3.43
-2.61
-1.65
-0.56
0.62
1.75
2.67
3.28
3.51
3.42
3.10
2.68
2.24
1.87
1.62
1.51
1.53
1.63
1.75
1.80
1.70
1.44
1.06
0.70
0.51
0.55
0.78
1.08
1.29
1.31
1.18
1.02
0.93
0.94
0.97
0.90
0.63
0.13
-0.55
-1.38
-2.31
-3.32
-4.30
-5.08
-5.45
-5.23
-4.45
-3.30
-2.05
-0.95
-0.11
0.49
0.97
1.38
1.73
1.93
1.93
1.74
1.46
1.25
1.21
1.32
1.53
1.70
1.75
1.68
1.55
1.45
1.45
1.57
1.78
2.02
2.23
2.38
2.46
2.47
2.39
2.20
1.90
1.50
1.08
0.70
0.41
0.21
0.02
-0.28
-0.80
-1.59
-2.59
-3.66
-4.65
-5.40
-5.85
-5.98
-5.81
-5.38
-4.71
-3.81
-2.74
-1.58
-0.48
0.40
0.93
1.12
1.05
0.87
0.72
0.66
0.71
0.81
0.93
1.06
1.23
1.49
1.84
2.25
2.64
2.95
3.15
3.23
3.27
3.29
3.31
3.29
3.18
2.92
2.49
1.91
1.27
0.66
0.14
-0.26
-0.57
-0.86
-1.21
-1.66
-2.20
-2.75
-3.23
-3.54
-3.63
-3.54
-3.30
-2.98
-2.57
-2.04
-1.32
-0.40
0.61
1.56
2.26
2.61
2.60
2.32
1.89
1.44
1.06
0.77
0.60
0.52
0.50
0.49
0.46
0.41
0.40
0.52
0.77
1.09
1.36
1.47
1.36
1.09
0.76
0.48
0.32
0.28
0.30
0.32
0.24
0.01
-0.43
-1.05
-1.80
-2.57
-3.28
-3.86
-4.25
-4.42
-4.33
-3.97
-3.32
-2.46
-1.53
-0.67
0.01
0.45
0.72
0.88
1.03
1.18
1.31
1.37
1.31
1.13
0.88
0.64
0.50
0.51
0.70
1.01
1.38
1.70
1.92
1.96
1.85
1.63
1.35
1.07
0.81
0.58
0.34
0.09
-0.18
-0.38
-0.46
-0.37
-0.18
-0.00
-0.01
-0.32
-0.93
-1.73
-2.55
-3.20
-3.59
-3.69
-3.55
-3.22
-2.75
-2.16
-1.48
-0.71
0.11
0.90
1.60
2.12
2.37
2.33
2.03
1.56
1.08
0.71
0.53
0.54
0.66
0.83
0.97
1.07
1.14
1.23
1.33
1.44
1.52
1.54
1.49
1.41
1.34
1.29
1.24
1.15
0.95
0.61
0.18
-0.27
-0.66
-0.95
-1.15
-1.30
-1.50
-1.81
-2.30
-2.95
-3.71
-4.44
-4.95
-5.10
-4.80
-4.10
-3.13
-2.09
-1.10
-0.22
0.59
1.33
2.00
2.51
2.81
2.84
2.65
2.31
1.87
1.40
0.95
0.60
0.44
0.52
0.84
1.28
1.68
1.88
1.82
1.57
1.28
1.07
1.00
1.01
1.01
0.93
0.73
0.49
0.27
0.11
-0.02
-0.22
-0.60
-1.21
-1.96
-2.72
-3.33
-3.69
-3.84
-3.91
-4.04
-4.24
-4.41
-4.37
-3.93
-3.07
-1.91
-0.68
0.41
1.25
1.87
2.36
2.78
3.10
3.21
3.03
2.55
1.88
1.23
0.79
0.66
0.78
1.00
1.17
1.22
1.17
1.14
1.24
1.51
1.90
2.27
2.51
2.49
2.18
1.63
0.95
0.24
-0.35
-0.76
-0.98
-1.08
-1.18
-1.40
-1.84
-2.48
-3.25
-4.00
-4.55
-4.76
-4.56
-3.99
-3.16
-2.21
-1.29
-0.45
0.30
1.01
1.71
2.37
2.88
3.11
3.02
2.62
2.04
1.43
0.89
0.44
0.07
-0.23
-0.42
-0.41
-0.16
0.29
0.81
1.22
1.44
1.44
1.33
1.19
1.11
1.07
1.01
0.88
0.67
0.38
0.03
-0.40
-0.92
-1.55
-2.23
-2.89
-3.43
-3.77
-3.89
-3.79
-3.49
-3.00
-2.31
-1.46
-0.51
0.44
1.29
1.96
2.41
2.67
2.74
2.66
2.46
2.18
1.88
1.61
1.40
1.25
1.11
0.99
0.88
0.78
0.70
0.62
0.52
0.40
0.27
0.20
0.22
0.34
0.49
0.59
0.55
0.35
0.06
-0.28
-0.63
-1.04
-1.56
-2.25
-3.08
-3.92
-4.60
-4.94
-4.85
-4.34
-3.52
-2.51
-1.39
-0.24
0.91
2.02
2.97
3.66
4.00
3.94
3.56
2.97
2.29
1.66
1.14
0.77
0.53
0.41
0.36
0.35
0.35
0.37
0.38
0.41
0.43
0.44
0.39
0.29
0.16
0.07
0.08
0.22
0.51
0.87
1.14
1.15
0.74
-0.14
-1.39
-2.77
-3.98
-4.80
-5.16
-5.10
-4.72
-4.10
-3.22
-2.06
-0.62
0.94
2.36
3.38
3.83
3.70
3.18
2.52
1.93
1.52
1.27
1.05
0.79
0.46
0.17
0.05
0.21
0.63
1.17
1.63
1.86
1.87
1.76
1.69
1.70
1.71
1.60
1.25
0.72
0.19
-0.15
-0.21
-0.07
0.05
-0.07
-0.56
-1.36
-2.31
-3.20
-3.88
-4.27
-4.37
-4.20
-3.74
-3.03
-2.11
-1.10
-0.13
0.73
1.43
1.97
2.38
2.67
2.82
2.80
2.63
2.33
1.98
1.62
1.30
1.05
0.89
0.82
0.85
0.93
1.03
1.08
1.03
0.90
0.73
0.59
0.51
0.49
0.53
0.58
0.66
0.71
0.73
0.64
0.39
-0.06
-0.70
-1.47
-2.28
-3.04
-3.64
-4.00
-4.02
-3.67
-2.95
-1.98
-0.92
0.05
0.78
1.21
1.36
1.32
1.21
1.12
1.11
1.18
1.30
1.40
1.41
1.31
1.09
0.83
0.63
0.57
0.69
0.96
1.29
1.59
1.73
1.68
1.43
1.08
0.73
0.47
0.34
0.32
0.37
0.42
0.41
0.27
-0.08
-0.69
-1.58
-2.65
-3.71
-4.53
-4.92
-4.81
-4.28
-3.50
-2.63
-1.76
-0.91
-0.07
0.74
1.45
1.97
2.25
2.27
2.04
1.64
1.14
0.66
0.28
0.08
0.07
0.22
0.44
0.66
0.85
1.05
1.28
1.52
1.70
1.73
1.57
1.25
0.89
0.63
0.52
0.55
0.62
0.63
0.51
0.28
-0.02
-0.36
-0.76
-1.24
-1.85
-2.53
-3.18
-3.68
-3.92
-3.86
-3.53
-3.01
-2.35
-1.60
-0.81
-0.03
0.65
1.16
1.44
1.52
1.46
1.35
1.26
1.21
1.19
1.15
1.09
1.01
0.96
0.97
1.05
1.18
1.29
1.36
1.39
1.41
1.45
1.52
1.58
1.56
1.45
1.26
1.00
0.73
0.45
0.15
-0.23
-0.68
-1.24
-1.87
-2.53
-3.13
-3.59
-3.84
-3.86
-3.69
-3.42
-3.11
-2.76
-2.31
-1.67
-0.79
0.25
1.27
2.06
2.44
2.39
2.05
1.64
1.34
1.23
1.28
1.33
1.30
1.14
0.95
0.82
0.85
1.01
1.23
1.38
1.38
1.26
1.09
0.97
0.94
0.96
0.97
0.87
0.65
0.40
0.22
0.18
0.27
0.40
0.44
0.31
0.01
-0.39
-0.83
-1.31
-1.84
-2.47
-3.16
-3.82
-4.30
-4.46
-4.28
-3.81
-3.20
-2.62
-2.13
-1.70
-1.22
-0.56
0.30
1.27
2.16
2.78
2.97
2.75
2.23
1.60
1.06
0.70
0.54
0.54
0.63
0.74
0.86
0.98
1.12
1.31
1.53
1.75
1.92
1.96
1.84
1.58
1.25
0.93
0.67
0.48
0.31
0.10
-0.24
-0.72
-1.35
-2.07
-2.81
-3.50
-4.05
-4.37
-4.40
-4.12
-3.53
-2.70
-1.72
-0.71
0.21
0.93
1.39
1.60
1.63
1.56
1.49
1.40
1.28
1.07
0.78
0.50
0.35
0.43
0.71
1.07
1.34
1.41
1.27
1.03
0.82
0.68
0.60
0.52
0.40
0.32
0.37
0.60
0.96
1.29
1.40
1.19
0.66
-0.10
-0.96
-1.80
-2.57
-3.22
-3.70
-3.96
-3.96
-3.70
-3.22
-2.62
-1.96
-1.31
-0.67
-0.06
0.52
1.06
1.54
1.89
2.07
2.03
1.79
1.42
1.07
0.84
0.83
0.99
1.21
1.35
1.33
1.16
0.94
0.77
0.72
0.77
0.86
0.92
0.90
0.84
0.77
0.72
0.68
0.66
0.63
0.56
0.42
0.15
-0.32
-1.02
-1.90
-2.86
-3.77
-4.48
-4.90
-4.99
-4.75
-4.19
-3.34
-2.25
-1.05
0.08
0.99
1.58
1.85
1.91
1.89
1.86
1.88
1.88
1.84
1.70
1.46
1.20
0.96
0.85
0.93
1.23
1.72
2.31
2.87
3.23
3.30
3.07
2.63
2.09
1.59
1.21
0.96
0.79
0.60
0.35
0.01
-0.36
-0.73
-1.09
-1.53
-2.11
-2.90
-3.81
-4.62
-5.08
-5.01
-4.39
-3.41
-2.32
-1.31
-0.43
0.34
1.05
1.67
2.12
2.29
2.12
1.69
1.14
0.65
0.32
0.18
0.17
0.25
0.36
0.52
0.75
1.06
1.45
1.83
2.13
2.24
2.12
1.84
1.48
1.19
1.02
0.99
1.00
1.00
0.91
0.74
0.49
0.17
-0.25
-0.83
-1.60
-2.51
-3.44
-4.20
-4.63
-4.64
-4.26
-3.59
-2.77
-1.92
-1.09
-0.27
0.52
1.26
1.88
2.28
2.42
2.31
2.03
1.65
1.29
0.99
0.80
0.70
0.65
0.60
0.52
0.42
0.35
0.41
0.63
0.98
1.36
1.64
1.71
1.60
1.38
1.16
1.02
0.93
0.83
0.62
0.22
-0.37
-1.16
-2.08
-3.05
-3.97
-4.70
-5.09
-5.04
-4.49
-3.52
-2.26
-0.92
0.28
1.19
1.76
2.02
2.05
1.95
1.80
1.63
1.43
1.19
0.92
0.65
0.45
0.39
0.48
0.72
1.03
1.32
1.49
1.52
1.41
1.20
0.95
0.72
0.54
0.42
0.38
0.40
0.49
0.58
0.60
0.42
-0.05
-0.84
-1.87
-2.95
-3.85
-4.42
-4.60
-4.44
-4.04
-3.51
-2.85
-2.08
-1.19
-0.24
0.68
1.48
2.08
2.46
2.62
2.58
2.36
2.01
1.54
1.06
0.66
0.42
0.40
0.59
0.90
1.22
1.41
1.42
1.24
0.97
0.71
0.54
0.50
0.55
0.66
0.79
0.91
0.99
0.97
0.77
0.34
-0.34
-1.19
-2.10
-2.93
-3.56
-3.92
-4.00
-3.79
-3.31
-2.56
-1.60
-0.58
0.34
1.01
1.33
1.36
1.22
1.09
1.09
1.20
1.34
1.38
1.28
1.09
0.94
0.94
1.12
1.40
1.64
1.76
1.74
1.68
1.65
1.68
1.70
1.58
1.27
0.81
0.36
0.09
0.09
0.27
0.41
0.30
-0.19
-0.98
-1.91
-2.75
-3.37
-3.76
-3.98
-4.10
-4.14
-4.03
-3.69
-3.08
-2.24
-1.25
-0.26
0.63
1.36
1.88
2.19
2.28
2.15
1.85
1.44
1.05
0.77
0.66
0.74
0.97
1.26
1.57
1.84
2.04
2.14
2.11
1.93
1.64
1.30
0.98
0.73
0.53
0.35
0.16
-0.03
-0.21
-0.35
-0.52
-0.81
-1.33
-2.09
-2.98
-3.77
-4.25
-4.27
-3.84
-3.11
-2.27
-1.47
-0.81
-0.27
0.21
0.66
1.10
1.47
1.70
1.75
1.64
1.45
1.31
1.34
1.56
1.91
2.26
2.44
2.36
2.06
1.68
1.35
1.15
1.05
0.92
0.67
0.31
-0.01
-0.16
-0.05
0.21
0.45
0.45
0.13
-0.45
-1.12
-1.75
-2.28
-2.75
-3.22
-3.69
-4.06
-4.19
-3.95
-3.30
-2.32
-1.18
-0.08
0.79
1.33
1.53
1.50
1.37
1.30
1.34
1.45
1.54
1.49
1.27
0.97
0.69
0.56
0.58
0.68
0.81
0.92
1.04
1.24
1.53
1.83
2.03
2.04
1.85
1.56
1.34
1.25
1.30
1.34
1.21
0.78
0.06
-0.85
-1.77
-2.58
-3.21
-3.71
-4.17
-4.62
-5.00
-5.16
-4.91
-4.15
-2.92
-1.44
0.00
1.13
1.86
2.23
2.38
2.42
2.38
2.22
1.91
1.49
1.08
0.84
0.84
1.03
1.30
1.54
1.69
1.79
1.89
2.00
2.08
2.07
1.93
1.71
1.50
1.38
1.33
1.30
1.17
0.92
0.55
0.16
-0.20
-0.56
-1.01
-1.62
-2.44
-3.35
-4.19
-4.78
-4.98
-4.79
-4.27
-3.54
-2.72
-1.87
-1.01
-0.12
0.78
1.64
2.33
2.73
2.77
2.46
1.94
1.36
0.89
0.60
0.49
0.52
0.64
0.83
1.07
1.31
1.50
1.59
1.57
1.45
1.29
1.15
1.07
1.04
1.02
0.98
0.87
0.64
0.33
-0.02
-0.31
-0.49
-0.55
-0.57
-0.71
-1.08
-1.71
-2.52
-3.35
-4.00
-4.32
-4.25
-3.83
-3.12
-2.22
-1.24
-0.26
0.61
1.30
1.78
2.02
2.07
1.98
1.82
1.67
1.58
1.54
1.52
1.47
1.34
1.12
0.86
0.61
0.45
0.38
0.41
0.56
0.82
1.20
1.62
1.98
2.13
1.98
1.55
0.99
0.47
0.10
-0.15
-0.43
-0.95
-1.79
-2.90
-4.08
-5.08
-5.66
-5.71
-5.22
-4.32
-3.19
-2.02
-0.95
-0.04
0.70
1.31
1.83
2.25
2.54
2.64
2.53
2.24
1.84
1.38
0.93
0.52
0.17
-0.08
-0.20
-0.15
0.05
0.36
0.72
1.05
1.29
1.40
1.38
1.26
1.08
0.92
0.87
0.93
1.09
1.22
1.19
0.87
0.19
-0.80
-2.00
-3.24
-4.35
-5.15
-5.50
-5.33
-4.65
-3.59
-2.39
-1.29
-0.46
0.06
0.42
0.77
1.24
1.83
2.41
2.81
2.93
2.74
2.32
1.78
1.25
0.78
0.46
0.34
0.43
0.75
1.20
1.68
2.04
2.20
2.11
1.81
1.36
0.83
0.31
-0.11
-0.33
-0.26
0.11
0.70
1.32
1.73
1.72
1.20
0.19
-1.16
-2.66
-4.04
-5.10
-5.66
-5.66
-5.12
-4.17
-2.98
-1.71
-0.52
0.49
1.23
1.66
1.78
1.66
1.46
1.37
1.48
1.76
2.02
2.07
1.78
1.21
0.60
0.22
0.19
0.47
0.85
1.15
1.26
1.25
1.26
1.36
1.55
1.69
1.64
1.39
1.00
0.63
0.38
0.27
0.22
0.15
-0.01
-0.30
-0.72
-1.31
-2.09
-3.08
-4.15
-5.07
-5.57
-5.45
-4.68
-3.41
-1.97
-0.65
0.34
0.97
1.31
1.52
1.68
1.85
1.96
1.95
1.79
1.51
1.16
0.83
0.57
0.39
0.28
0.25
0.31
0.47
0.73
1.01
1.23
1.35
1.34
1.26
1.13
0.98
0.80
0.58
0.37
0.23
0.23
0.35
0.47
0.43
0.05
-0.72
-1.81
-3.01
-4.08
-4.80
-5.05
-4.85
-4.29
-3.52
-2.63
-1.69
-0.75
0.18
1.05
1.79
2.32
2.58
2.56
2.33
1.98
1.62
1.28
0.99
0.75
0.54
0.40
0.35
0.40
0.56
0.77
1.01
1.24
1.42
1.57
1.65
1.65
1.56
1.41
1.24
1.09
0.96
0.76
0.42
-0.13
-0.87
-1.71
-2.56
-3.34
-4.00
-4.49
-4.78
-4.76
-4.37
-3.58
-2.45
-1.18
0.05
1.09
1.86
2.38
2.69
2.81
2.72
2.40
1.90
1.32
0.80
0.46
0.34
0.40
0.54
0.70
0.89
1.12
1.43
1.78
2.09
2.26
2.22
1.98
1.58
1.13
0.71
0.39
0.14
-0.13
-0.52
-1.15
-2.04
-3.11
-4.16
-5.00
-5.50
-5.62
-5.39
-4.88
-4.10
-3.09
-1.91
-0.69
0.40
1.24
1.76
2.01
2.11
2.15
2.16
2.09
1.89
1.56
1.13
0.73
0.46
0.43
0.65
1.07
1.58
2.01
2.25
2.26
2.09
1.86
1.65
1.52
1.46
1.42
1.32
1.12
0.78
0.30
-0.29
-0.96
-1.64
-2.30
-2.91
-3.50
-4.04
-4.51
-4.79
-4.76
-4.34
-3.53
-2.47
-1.33
-0.33
0.44
0.96
1.33
1.64
1.92
2.14
2.26
2.22
2.07
1.90
1.79
1.81
1.90
1.95
1.86
1.60
1.24
0.95
0.87
1.05
1.42
1.82
2.11
2.23
2.23
2.17
2.11
2.03
1.82
1.43
0.85
0.13
-0.64
-1.40
-2.12
-2.82
-3.51
-4.16
-4.70
-5.02
-5.02
-4.63
-3.88
-2.82
-1.61
-0.42
0.60
1.35
1.87
2.21
2.47
2.66
2.71
2.54
2.12
1.51
0.87
0.38
0.14
0.15
0.29
0.42
0.43
0.34
0.27
0.37
0.73
1.29
1.88
2.29
2.39
2.18
1.78
1.35
1.02
0.77
0.56
0.31
-0.03
-0.43
-0.89
-1.43
-2.10
-2.89
-3.74
-4.47
-4.90
-4.90
-4.46
-3.71
-2.81
-1.88
-0.97
-0.09
0.77
1.55
2.15
2.48
2.51
2.29
1.92
1.56
1.30
1.17
1.15
1.18
1.21
1.18
1.06
0.85
0.61
0.40
0.31
0.39
0.63
0.94
1.24
1.45
1.54
1.52
1.43
1.27
1.04
0.72
0.32
-0.13
-0.64
-1.20
-1.85
-2.61
-3.43
-4.19
-4.76
-4.98
-4.80
-4.27
-3.51
-2.65
-1.77
-0.91
-0.06
0.78
1.58
2.26
2.70
2.82
2.63
2.23
1.79
1.47
1.34
1.40
1.51
1.58
1.57
1.50
1.46
1.50
1.61
1.71
1.72
1.62
1.44
1.26
1.13
1.04
0.93
0.72
0.35
-0.14
-0.68
-1.19
-1.66
-2.13
-2.70
-3.41
-4.19
-4.88
-5.27
-5.21
-4.67
-3.78
-2.68
-1.51
-0.34
0.79
1.79
2.53
2.89
2.81
2.39
1.85
1.43
1.28
1.40
1.64
1.82
1.82
1.62
1.31
0.95
0.61
0.31
0.10
0.03
0.16
0.53
1.04
1.52
1.79
1.70
1.27
0.60
-0.14
-0.79
-1.31
-1.72
-2.10
-2.51
-2.95
-3.36
-3.66
-3.80
-3.74
-3.49
-3.08
-2.54
-1.90
-1.18
-0.41
0.34
1.00
1.48
1.76
1.85
1.82
1.74
1.68
1.64
1.59
1.47
1.28
1.08
0.96
1.04
1.39
1.93
2.53
2.99
3.18
3.05
2.66
2.14
1.60
1.10
0.67
0.28
-0.07
-0.33
-0.50
-0.59
-0.70
-0.93
-1.38
-2.07
-2.96
-3.91
-4.78
-5.42
-5.69
-5.50
-4.80
-3.66
-2.21
-0.67
0.71
1.74
2.35
2.59
2.61
2.53
2.45
2.37
2.26
2.07
1.82
1.54
1.30
1.11
0.97
0.84
0.74
0.70
0.79
1.00
1.29
1.55
1.68
1.65
1.53
1.38
1.25
1.12
0.93
0.61
0.15
-0.41
-1.01
-1.60
-2.20
-2.83
-3.49
-4.13
-4.62
-4.83
-4.67
-4.13
-3.29
-2.29
-1.27
-0.34
0.49
1.21
1.84
2.35
2.67
2.70
2.43
1.93
1.37
0.92
0.70
0.74
0.94
1.16
1.29
1.28
1.16
1.01
0.94
0.98
1.13
1.32
1.48
1.54
1.46
1.28
1.02
0.71
0.37
-0.01
-0.48
-1.03
-1.67
-2.36
-3.04
-3.63
-4.01
-4.14
-3.98
-3.57
-2.95
-2.20
-1.39
-0.58
0.16
0.76
1.19
1.47
1.63
1.72
1.76
1.73
1.62
1.42
1.17
0.94
0.80
0.76
0.80
0.89
0.98
1.09
1.24
1.44
1.68
1.90
2.01
1.95
1.71
1.33
0.91
0.55
0.30
0.14
-0.04
-0.34
-0.83
-1.50
-2.27
-3.05
-3.75
-4.26
-4.52
-4.45
-4.05
-3.38
-2.56
-1.71
-0.92
-0.23
0.40
0.96
1.45
1.80
1.98
1.95
1.76
1.45
1.11
0.78
0.53
0.39
0.39
0.55
0.82
1.13
1.42
1.62
1.72
1.72
1.66
1.55
1.42
1.26
1.04
0.78
0.48
0.23
0.09
0.11
0.25
0.37
0.30
-0.13
-0.93
-1.99
-3.11
-4.06
-4.68
-4.91
-4.74
-4.20
-3.35
-2.26
-1.07
0.08
1.05
1.77
2.24
2.50
2.62
2.61
2.43
2.05
1.53
0.98
0.56
0.39
0.49
0.74
0.97
1.04
0.93
0.75
0.65
0.73
1.02
1.44
1.85
2.14
2.23
2.12
1.83
1.38
0.81
0.22
-0.30
-0.67
-0.86
-0.96
-1.12
-1.50
-2.18
-3.07
-4.00
-4.74
-5.13
-5.11
-4.73
-4.08
-3.25
-2.26
-1.13
0.09
1.30
2.35
3.11
3.47
3.45
3.12
2.62
2.08
1.62
1.29
1.07
0.94
0.84
0.81
0.86
1.04
1.36
1.73
2.02
2.08
1.83
1.31
0.68
0.11
-0.25
-0.34
-0.19
0.11
0.46
0.72
0.78
0.53
-0.09
-1.06
-2.24
-3.44
-4.45
-5.08
-5.24
-4.91
-4.13
-3.02
-1.69
-0.32
0.92
1.88
2.44
2.61
2.43
2.05
1.63
1.28
1.07
1.01
1.05
1.11
1.17
1.18
1.13
1.03
0.88
0.73
0.61
0.59
0.66
0.80
0.93
0.99
0.96
0.85
0.71
0.57
0.41
0.19
-0.12
-0.59
-1.23
-2.01
-2.90
-3.80
-4.57
-5.07
-5.17
-4.80
-4.02
-2.96
-1.82
-0.75
0.14
0.84
1.36
1.72
1.92
1.98
1.89
1.72
1.51
1.31
1.15
1.01
0.87
0.74
0.62
0.56
0.58
0.68
0.86
1.11
1.39
1.65
1.85
1.93
1.87
1.72
1.54
1.38
1.22
0.97
0.53
-0.15
-1.00
-1.85
-2.56
-3.05
-3.39
-3.68
-4.00
-4.32
-4.51
-4.43
-4.02
-3.32
-2.44
-1.46
-0.42
0.65
1.71
2.64
3.23
3.33
2.90
2.12
1.26
0.61
0.33
0.42
0.75
1.13
1.42
1.56
1.57
1.48
1.35
1.19
1.06
0.96
0.93
0.93
0.90
0.80
0.60
0.35
0.10
-0.10
-0.30
-0.59
-1.08
-1.83
-2.77
-3.74
-4.54
-4.99
-5.03
-4.70
-4.12
-3.37
-2.55
-1.65
-0.66
0.40
1.49
2.47
3.19
3.52
3.43
3.03
2.51
2.05
1.78
1.68
1.67
1.64
1.52
1.34
1.15
1.02
0.99
1.05
1.17
1.31
1.44
1.56
1.65
1.68
1.60
1.39
1.05
0.62
0.14
-0.37
-0.93
-1.55
-2.28
-3.10
-3.95
-4.73
-5.28
-5.48
-5.26
-4.60
-3.62
-2.46
-1.30
-0.29
0.51
1.12
1.61
2.04
2.41
2.66
2.71
2.49
2.03
1.47
0.98
0.70
0.70
0.94
1.32
1.68
1.94
2.04
2.05
2.01
1.98
1.95
1.88
1.72
1.46
1.17
0.91
0.75
0.65
0.51
0.18
-0.40
-1.21
-2.10
-2.89
-3.47
-3.80
-3.96
-4.01
-3.95
-3.72
-3.22
-2.43
-1.40
-0.28
0.76
1.60
2.21
2.58
2.76
2.75
2.55
2.19
1.71
1.18
0.71
0.36
0.20
0.22
0.41
0.73
1.14
1.62
2.11
2.54
2.81
2.87
2.68
2.29
1.79
1.31
0.92
0.62
0.38
0.13
-0.18
-0.60
-1.14
-1.83
-2.70
-3.71
-4.76
-5.67
-6.27
-6.39
-5.99
-5.14
-3.98
-2.69
-1.43
-0.31
0.62
1.32
1.80
2.06
2.16
2.13
2.04
1.95
1.91
1.93
2.01
2.10
2.18
2.19
2.14
2.08
2.05
2.10
2.25
2.45
2.61
2.65
2.49
2.14
1.67
1.18
0.77
0.48
0.28
0.12
-0.07
-0.38
-0.84
-1.49
-2.28
-3.14
-3.96
-4.56
-4.82
-4.65
-4.06
-3.15
-2.05
-0.89
0.24
1.30
2.23
2.95
3.38
3.45
3.17
2.65
2.06
1.57
1.27
1.14
1.12
1.13
1.14
1.22
1.41
1.74
2.16
2.54
2.79
2.88
2.87
2.84
2.87
2.94
2.96
2.80
2.37
1.67
0.76
-0.22
-1.16
-2.02
-2.80
-3.57
-4.37
-5.20
-5.99
-6.71
-7.32
-7.82
-8.21
-8.46
-8.49
-8.19
-7.47
-6.34
-4.91
-3.38
-1.92
-0.65
0.40
1.24
1.86
2.25
2.35
2.20
1.84
1.43
1.11
0.96
0.99
1.15
1.38
1.61
1.84
2.08
2.31
2.52
2.66
2.70
2.63
2.48
2.30
2.15
2.07
2.05
2.11
2.18
2.19
2.06
1.74
1.21
0.58
-0.04
-0.55
-0.92
-1.18
-1.42
-1.67
-1.95
-2.26
-2.58
-2.96
-3.36
-3.73
-3.92
-3.74
-3.14
-2.20
-1.14
-0.24
0.33
0.59
0.69
0.81
1.04
1.35
1.63
1.78
1.75
1.59
1.37
1.16
1.00
0.86
0.73
0.58
0.44
0.32
0.27
0.33
0.48
0.71
0.95
1.15
1.26
1.25
1.13
0.91
0.63
0.33
0.04
-0.24
-0.50
-0.75
-1.03
-1.38
-1.84
-2.43
-3.12
-3.79
-4.27
-4.35
-3.90
-2.95
-1.68
-0.36
0.78
1.64
2.27
2.76
3.17
3.47
3.56
3.39
3.03
2.60
2.29
2.14
2.10
2.06
1.92
1.66
1.35
1.09
0.93
0.84
0.80
0.77
0.72
0.65
0.56
0.42
0.24
-0.00
-0.29
-0.60
-0.94
-1.36
-1.89
-2.58
-3.40
-4.28
-5.05
-5.54
-5.58
-5.10
-4.11
-2.76
-1.23
0.27
1.53
2.43
2.91
3.02
2.86
2.59
2.35
2.19
2.10
1.97
1.73
1.38
1.06
0.94
1.09
1.43
1.75
1.84
1.61
1.16
0.71
0.46
0.43
0.51
0.47
0.19
-0.31
-0.87
-1.29
-1.53
-1.68
-1.93
-2.39
-3.04
-3.69
-4.09
-4.04
-3.51
-2.58
-1.44
-0.27
0.80
1.71
2.42
2.92
3.21
3.30
3.21
2.96
2.61
2.21
1.84
1.53
1.29
1.09
0.86
0.58
0.22
-0.13
-0.37
-0.41
-0.23
0.12
0.46
0.67
0.65
0.42
0.05
-0.34
-0.68
-0.96
-1.21
-1.51
-1.91
-2.41
-2.93
-3.39
-3.70
-3.77
-3.58
-3.11
-2.41
-1.57
-0.67
0.21
1.03
1.79
2.46
3.01
3.37
3.49
3.36
3.02
2.58
2.18
1.91
1.80
1.80
1.85
1.90
1.93
1.92
1.91
1.88
1.84
1.74
1.54
1.21
0.75
0.23
-0.24
-0.53
-0.59
-0.48
-0.38
-0.52
-1.01
-1.82
-2.72
-3.39
-3.60
-3.30
-2.64
-1.83
-1.05
-0.34
0.31
0.95
1.50
1.86
1.91
1.71
1.41
1.25
1.32
1.58
1.79
1.74
1.34
0.70
0.08
-0.31
-0.36
-0.15
0.16
0.41
0.58
0.72
0.88
1.07
1.21
1.20
1.00
0.65
0.25
-0.11
-0.46
-0.88
-1.48
-2.26
-3.11
-3.77
-4.05
-3.85
-3.20
-2.28
-1.24
-0.24
0.62
1.30
1.79
2.06
2.14
2.05
1.88
1.65
1.38
1.06
0.68
0.26
-0.14
-0.44
-0.61
-0.66
-0.62
-0.51
-0.34
-0.10
0.18
0.47
0.74
0.94
1.05
1.06
0.97
0.75
0.39
-0.13
-0.77
-1.42
-1.98
-2.36
-2.51
-2.43
-2.13
-1.62
-0.91
-0.06
0.84
1.66
2.29
2.63
2.69
2.54
2.25
1.91
1.56
1.23
0.92
0.63
0.35
0.08
-0.17
-0.39
-0.55
-0.61
-0.54
-0.31
0.02
0.37
0.58
0.56
0.25
-0.32
-1.05
-1.80
-2.47
-3.02
-3.44
-3.75
-3.90
-3.80
-3.35
-2.57
-1.59
-0.62
0.10
0.49
0.58
0.56
0.61
0.80
1.08
1.31
1.36
1.21
0.97
0.77
0.72
0.81
0.94
1.00
0.92
0.68
0.35
0.01
-0.25
-0.41
-0.46
-0.49
-0.56
-0.77
-1.17
-1.74
-2.43
-3.09
-3.62
-3.87
-3.75
-3.23
-2.31
-1.15
0.05
1.03
1.60
1.74
1.57
1.33
1.18
1.18
1.24
1.25
1.11
0.87
0.61
0.41
0.28
0.15
-0.03
-0.25
-0.42
-0.40
-0.12
0.38
0.94
1.32
1.33
0.91
0.15
-0.74
-1.57
-2.21
-2.66
-2.97
-3.23
-3.47
-3.62
-3.57
-3.24
-2.62
-1.75
-0.80
0.10
0.84
1.35
1.64
1.75
1.72
1.59
1.39
1.18
1.00
0.85
0.75
0.69
0.64
0.65
0.80
1.15
1.71
2.40
3.02
3.35
3.26
2.72
1.80
0.64
-0.58
-1.73
-2.72
-3.45
-3.88
-3.97
-3.75
-3.30
-2.70
-2.07
-1.47
-0.91
-0.38
0.15
0.69
1.20
1.64
1.93
2.00
1.84
1.48
0.96
0.39
-0.15
-0.57
-0.85
-0.97
-0.98
-0.93
-0.88
-0.84
-0.83
-0.81
-0.77
-0.70
-0.62
-0.55
-0.52
-0.55
-0.70
-1.00
-1.46
-2.03
-2.60
-3.00
-3.07
-2.75
-2.07
-1.18
-0.25
0.61
1.34
1.97
2.54
3.03
3.41
3.60
3.54
3.23
2.74
2.21
1.74
1.43
1.31
1.34
1.46
1.63
1.78
1.87
1.86
1.74
1.50
1.17
0.78
0.36
-0.10
-0.59
-1.15
-1.78
-2.45
-3.17
-3.90
-4.62
-5.26
-5.70
-5.80
-5.48
-4.74
-3.73
-2.66
-1.67
-0.80
0.02
0.92
1.92
2.96
3.86
4.48
4.79
4.87
4.86
4.84
4.80
4.66
4.34
3.86
3.35
3.01
2.95
3.16
3.48
3.70
3.69
3.44
3.06
2.66
2.28
1.84
1.21
0.33
-0.72
-1.75
-2.52
-2.91
-2.96
-2.81
-2.61
-2.43
-2.19
-1.82
-1.26
-0.55
0.19
0.83
1.29
1.56
1.63
1.53
1.24
0.75
0.11
-0.56
-1.12
-1.44
-1.49
-1.36
-1.16
-1.00
-0.92
-0.85
-0.71
-0.46
-0.12
0.23
0.46
0.53
0.42
0.18
-0.11
-0.43
-0.79
-1.23
-1.78
-2.41
-3.04
-3.56
-3.87
-3.91
-3.68
-3.22
-2.59
-1.88
-1.11
-0.37
0.28
0.77
1.04
1.10
1.03
0.93
0.90
0.97
1.08
1.17
1.15
1.01
0.80
0.61
0.52
0.52
0.59
0.61
0.54
0.38
0.21
0.09
0.11
0.26
0.46
0.65
0.75
0.74
0.63
0.44
0.18
-0.16
-0.61
-1.20
-1.93
-2.75
-3.60
-4.33
-4.79
-4.81
-4.31
-3.30
-1.96
-0.54
0.71
1.61
2.12
2.30
2.30
2.18
1.94
1.52
0.92
0.23
-0.35
-0.59
-0.40
0.18
0.90
1.49
1.78
1.75
1.52
1.26
1.08
0.97
0.86
0.73
0.60
0.55
0.62
0.78
0.87
0.75
0.31
-0.40
-1.25
-2.06
-2.68
-3.11
-3.42
-3.70
-3.96
-4.14
-4.09
-3.70
-2.93
-1.88
-0.71
0.36
1.23
1.84
2.24
2.51
2.66
2.66
2.48
2.10
1.59
1.09
0.73
0.57
0.59
0.70
0.83
0.95
1.09
1.33
1.66
2.03
2.32
2.43
2.31
1.99
1.58
1.15
0.74
0.34
-0.08
-0.55
-1.03
-1.47
-1.83
-2.12
-2.41
-2.75
-3.17
-3.60
-3.89
-3.91
-3.58
-2.95
-2.13
-1.26
-0.40
0.44
1.28
2.06
2.70
3.07
3.09
2.78
2.29
1.78
1.38
1.14
1.02
0.95
0.88
0.81
0.80
0.86
1.01
1.17
1.26
1.21
1.05
0.85
0.72
0.70
0.78
0.86
0.85
0.74
0.57
0.38
0.20
-0.04
-0.40
-0.95
-1.68
-2.48
-3.20
-3.72
-4.01
-4.06
-3.90
-3.55
-2.98
-2.18
-1.20
-0.13
0.87
1.68
2.22
2.46
2.47
2.28
1.99
1.64
1.29
0.96
0.71
0.57
0.51
0.55
0.62
0.66
0.64
0.56
0.46
0.43
0.51
0.70
0.92
1.09
1.16
1.14
1.09
1.08
1.09
1.00
0.72
0.19
-0.53
-1.30
-1.97
-2.47
-2.83
-3.12
-3.37
-3.54
-3.50
-3.12
-2.35
-1.30
-0.12
0.98
1.87
2.51
2.95
3.26
3.48
3.58
3.52
3.25
2.80
2.25
1.72
1.32
1.08
1.01
1.08
1.24
1.48
1.79
2.11
2.34
2.38
2.17
1.76
1.28
0.84
0.54
0.34
0.15
-0.15
-0.60
-1.18
-1.84
-2.56
-3.32
-4.12
-4.89
-5.53
-5.89
-5.88
-5.45
-4.66
-3.57
-2.29
-0.94
0.38
1.54
2.43
3.00
3.24
3.21
3.00
2.66
2.22
1.68
1.11
0.55
0.11
-0.15
-0.23
-0.16
-0.01
0.18
0.38
0.60
0.83
1.03
1.16
1.16
0.97
0.59
0.07
-0.49
-1.03
-1.47
-1.84
-2.20
-2.65
-3.22
-3.88
-4.47
-4.79
-4.68
-4.11
-3.20
-2.15
-1.16
-0.35
0.30
0.84
1.33
1.76
2.06
2.18
2.12
1.92
1.65
1.40
1.20
1.04
0.91
0.78
0.65
0.54
0.48
0.49
0.61
0.84
1.13
1.36
1.42
1.27
0.92
0.47
0.05
-0.26
-0.51
-0.81
-1.31
-2.10
-3.15
-4.29
-5.23
-5.69
-5.46
-4.54
-3.12
-1.51
-0.06
0.98
1.57
1.82
1.92
2.05
2.24
2.43
2.50
2.41
2.15
1.79
1.41
1.05
0.71
0.39
0.15
0.05
0.18
0.54
1.05
1.53
1.82
1.80
1.49
0.97
0.40
-0.16
-0.71
-1.31
-2.05
-2.95
-3.90
-4.74
-5.29
-5.42
-5.13
-4.50
-3.67
-2.73
-1.73
-0.67
0.41
1.43
2.29
2.85
3.04
2.86
2.48
2.10
1.97
2.17
2.62
3.09
3.32
3.18
2.72
2.14
1.68
1.44
1.36
1.30
1.13
0.84
0.56
0.39
0.36
0.38
0.32
0.05
-0.48
-1.23
-2.13
-3.09
-4.03
-4.87
-5.47
-5.71
-5.51
-4.87
-3.87
-2.66
-1.41
-0.25
0.74
1.51
2.03
2.33
2.48
2.56
2.61
2.65
2.64
2.54
2.35
2.10
1.85
1.69
1.64
1.71
1.87
2.05
2.20
2.27
2.28
2.26
2.26
2.31
2.33
2.24
1.91
1.31
0.51
-0.31
-0.97
-1.35
-1.46
-1.41
-1.34
-1.38
-1.58
-1.97
-2.50
-3.12
-3.75
-4.27
-4.57
-4.55
-4.22
-3.59
-2.71
-1.67
-0.55
0.54
1.48
2.17
2.56
2.72
2.75
2.75
2.79
2.84
2.85
2.78
2.63
2.43
2.21
1.97
1.70
1.40
1.09
0.83
0.67
0.67
0.79
1.00
1.23
1.45
1.66
1.86
2.03
2.14
2.12
1.95
1.64
1.29
1.04
0.97
1.07
1.25
1.32
1.13
0.61
-0.19
-1.11
-2.01
-2.77
-3.40
-3.91
-4.33
-4.64
-4.75
-4.60
-4.15
-3.46
-2.63
-1.81
-1.11
-0.55
-0.10
0.29
0.64
0.93
1.14
1.24
1.26
1.24
1.23
1.23
1.28
1.35
1.47
1.61
1.76
1.85
1.85
1.74
1.53
1.31
1.15
1.12
1.25
1.50
1.81
2.07
2.22
2.20
2.00
1.66
1.22
0.75
0.26
-0.26
-0.85
-1.56
-2.37
-3.25
-4.10
-4.75
-5.06
-4.95
-4.42
-3.60
-2.63
-1.68
-0.79
0.04
0.83
1.59
2.21
2.60
2.70
2.52
2.19
1.85
1.58
1.39
1.19
0.92
0.57
0.20
-0.08
-0.18
-0.06
0.22
0.58
0.88
1.06
1.08
0.96
0.72
0.43
0.12
-0.14
-0.33
-0.40
-0.35
-0.22
-0.06
0.02
-0.11
-0.52
-1.22
-2.14
-3.13
-4.01
-4.65
-4.96
-4.92
-4.56
-3.91
-3.02
-1.98
-0.90
0.11
0.94
1.53
1.91
2.15
2.30
2.35
2.25
1.95
1.50
1.05
0.74
0.67
0.83
1.11
1.36
1.53
1.64
1.72
1.81
1.88
1.87
1.72
1.44
1.11
0.82
0.64
0.51
0.37
0.14
-0.21
-0.66
-1.14
-1.62
-2.12
-2.65
-3.24
-3.84
-4.34
-4.64
-4.68
-4.45
-3.98
-3.32
-2.52
-1.62
-0.67
0.24
1.02
1.63
2.06
2.29
2.35
2.22
1.92
1.49
1.03
0.66
0.48
0.52
0.73
1.05
1.38
1.69
1.98
2.24
2.48
2.64
2.66
2.50
2.19
1.78
1.39
1.07
0.83
0.63
0.38
0.04
-0.40
-0.93
-1.53
-2.20
-2.96
-3.77
-4.52
-5.06
-5.23
-4.95
-4.25
-3.29
-2.22
-1.16
-0.18
0.73
1.58
2.33
2.90
3.20
3.20
2.95
2.58
2.20
1.87
1.58
1.30
1.03
0.83
0.80
1.00
1.37
1.77
2.02
1.98
1.67
1.18
0.71
0.38
0.28
0.38
0.58
0.76
0.80
0.57
0.01
-0.87
-1.98
-3.19
-4.32
-5.24
-5.82
-5.98
-5.68
-4.93
-3.81
-2.48
-1.15
-0.01
0.82
1.38
1.75
2.07
2.36
2.61
2.71
2.60
2.32
1.95
1.63
1.42
1.31
1.24
1.18
1.13
1.12
1.18
1.28
1.36
1.35
1.29
1.22
1.23
1.36
1.56
1.72
1.73
1.49
0.96
0.12
-1.01
-2.33
-3.73
-4.98
-5.87
-6.22
-5.99
-5.26
-4.21
-3.04
-1.89
-0.84
0.11
0.96
1.71
2.28
2.61
2.63
2.38
1.96
1.52
1.21
1.08
1.10
1.20
1.31
1.36
1.33
1.21
1.00
0.67
0.28
-0.11
-0.40
-0.48
-0.33
-0.03
0.28
0.43
0.31
-0.15
-0.92
-1.93
-3.08
-4.28
-5.40
-6.27
-6.70
-6.55
-5.73
-4.37
-2.68
-1.00
0.36
1.26
1.71
1.86
1.92
2.06
2.33
2.70
3.07
3.32
3.38
3.20
2.84
2.40
2.02
1.83
1.87
2.10
2.41
2.67
2.78
2.71
2.47
2.10
1.66
1.16
0.66
0.20
-0.15
-0.36
-0.44
-0.47
-0.56
-0.86
-1.44
-2.34
-3.43
-4.49
-5.26
-5.52
-5.19
-4.32
-3.12
-1.83
-0.64
0.36
1.16
1.78
2.22
2.48
2.58
2.56
2.51
2.50
2.57
2.61
2.51
2.17
1.62
1.00
0.48
0.21
0.24
0.52
0.92
1.32
1.64
1.84
1.91
1.85
1.66
1.35
0.96
0.57
0.24
0.04
-0.05
-0.12
-0.30
-0.72
-1.41
-2.31
-3.26
-4.05
-4.54
-4.61
-4.26
-3.55
-2.59
-1.53
-0.52
0.30
0.90
1.29
1.54
1.71
1.79
1.73
1.49
1.11
0.71
0.45
0.43
0.65
1.00
1.33
1.56
1.64
1.62
1.55
1.47
1.39
1.32
1.27
1.26
1.26
1.20
1.01
0.67
0.18
-0.40
-1.07
-1.80
-2.62
-3.48
-4.28
-4.85
-5.07
-4.89
-4.38
-3.64
-2.79
-1.88
-0.95
-0.00
0.91
1.67
2.21
2.44
2.39
2.11
1.72
1.33
1.04
0.90
0.87
0.92
0.96
0.98
0.97
0.95
0.93
0.90
0.84
0.75
0.69
0.70
0.82
1.03
1.23
1.31
1.18
0.75
0.04
-0.95
-2.11
-3.30
-4.30
-4.92
-5.03
-4.64
-3.85
-2.85
-1.82
-0.85
-0.01
0.70
1.30
1.79
2.15
2.37
2.45
2.39
2.24
2.05
1.88
1.74
1.62
1.46
1.20
0.86
0.50
0.24
0.16
0.28
0.57
0.92
1.23
1.45
1.51
1.37
1.00
0.38
-0.47
-1.48
-2.54
-3.54
-4.39
-5.00
-5.32
-5.29
-4.92
-4.26
-3.39
-2.44
-1.51
-0.64
0.16
0.89
1.55
2.10
2.49
2.66
2.59
2.31
1.89
1.45
1.08
0.88
0.86
0.98
1.19
1.43
1.66
1.86
2.01
2.08
2.03
1.85
1.54
1.17
0.78
0.43
0.10
-0.23
-0.65
-1.21
-1.91
-2.71
-3.51
-4.20
-4.66
-4.80
-4.58
-4.01
-3.17
-2.18
-1.18
-0.24
0.60
1.32
1.93
2.40
2.70
2.77
2.64
2.36
2.05
1.78
1.62
1.52
1.45
1.36
1.30
1.34
1.49
1.75
1.98
2.04
1.82
1.33
0.70
0.10
-0.28
-0.36
-0.20
0.09
0.34
0.38
0.14
-0.38
-1.12
-1.98
-2.84
-3.63
-4.24
-4.58
-4.54
-4.07
-3.17
-1.95
-0.62
0.58
1.48
2.02
2.25
2.29
2.22
2.07
1.85
1.54
1.20
0.92
0.75
0.70
0.68
0.63
0.50
0.38
0.38
0.63
1.13
1.74
2.21
2.32
1.98
1.33
0.60
0.06
-0.15
-0.07
0.14
0.27
0.22
-0.06
-0.53
-1.17
-1.97
-2.90
-3.87
-4.71
-5.19
-5.12
-4.44
-3.23
-1.73
-0.19
1.16
2.21
2.90
3.24
3.27
3.04
2.63
2.16
1.75
1.51
1.48
1.61
1.78
1.83
1.68
1.34
0.90
0.52
0.34
0.39
0.63
0.91
1.08
1.05
0.85
0.59
0.38
0.29
0.28
0.23
0.01
-0.48
-1.21
-2.11
-3.05
-3.92
-4.63
-5.10
-5.27
-5.09
-4.54
-3.65
-2.52
-1.28
-0.06
1.02
1.89
2.50
2.84
2.92
2.78
2.50
2.16
1.86
1.67
1.57
1.52
1.44
1.29
1.08
0.86
0.71
0.67
0.74
0.88
1.01
1.13
1.22
1.31
1.39
1.43
1.38
1.21
0.92
0.56
0.16
-0.25
-0.68
-1.15
-1.68
-2.26
-2.90
-3.58
-4.25
-4.83
-5.18
-5.17
-4.71
-3.83
-2.66
-1.43
-0.31
0.57
1.19
1.60
1.86
2.00
2.05
1.99
1.84
1.62
1.39
1.22
1.14
1.17
1.26
1.36
1.41
1.38
1.26
1.09
0.91
0.80
0.77
0.86
1.02
1.24
1.44
1.58
1.62
1.57
1.45
1.32
1.22
1.13
1.05
0.90
0.61
0.12
-0.60
-1.50
-2.48
-3.38
-4.03
-4.31
-4.19
-3.74
-3.09
-2.37
-1.63
-0.90
-0.18
0.50
1.07
1.46
1.65
1.69
1.69
1.74
1.82
1.88
1.83
1.63
1.35
1.05
0.84
0.71
0.64
0.58
0.59
0.70
0.98
1.34
1.66
1.75
1.55
1.10
0.58
0.17
-0.05
-0.09
-0.05
-0.01
0.01
0.02
-0.01
-0.17
-0.57
-1.31
-2.37
-3.59
-4.68
-5.38
-5.51
-5.04
-4.08
-2.81
-1.45
-0.18
0.90
1.70
2.18
2.35
2.23
1.89
1.42
0.98
0.70
0.65
0.79
1.02
1.20
1.24
1.13
0.94
0.77
0.68
0.71
0.82
0.95
1.06
1.09
1.06
0.97
0.83
0.68
0.51
0.34
0.15
-0.08
-0.36
-0.72
-1.17
-1.76
-2.53
-3.48
-4.54
-5.51
-6.16
-6.27
-5.76
-4.71
-3.35
-1.97
-0.80
0.09
0.73
1.21
1.61
1.92
2.09
2.08
1.87
1.56
1.25
1.04
0.92
0.86
0.81
0.75
0.71
0.73
0.85
1.03
1.21
1.34
1.36
1.28
1.13
0.94
0.73
0.53
0.37
0.26
0.21
0.21
0.19
0.06
-0.24
-0.74
-1.43
-2.26
-3.14
-3.94
-4.55
-4.86
-4.80
-4.38
-3.69
-2.87
-2.04
-1.28
-0.62
-0.01
0.59
1.20
1.77
2.26
2.63
2.83
2.87
2.76
2.50
2.13
1.72
1.36
1.13
1.05
1.07
1.10
1.08
1.03
1.03
1.14
1.37
1.62
1.79
1.81
1.68
1.46
1.23
0.98
0.69
0.32
-0.14
-0.65
-1.20
-1.82
-2.54
-3.36
-4.22
-4.96
-5.37
-5.31
-4.75
-3.82
-2.71
-1.61
-0.65
0.15
0.83
1.42
1.91
2.27
2.42
2.35
2.14
1.88
1.71
1.69
1.82
2.03
2.24
2.41
2.53
2.62
2.69
2.71
2.65
2.51
2.33
2.16
2.04
1.97
1.90
1.76
1.52
1.19
0.79
0.38
-0.06
-0.59
-1.27
-2.10
-2.99
-3.80
-4.36
-4.59
-4.50
-4.18
-3.74
-3.25
-2.74
-2.17
-1.48
-0.67
0.20
1.04
1.73
2.19
2.40
2.40
2.28
2.10
1.89
1.65
1.35
1.00
0.70
0.55
0.61
0.86
1.18
1.44
1.57
1.58
1.54
1.52
1.53
1.53
1.44
1.25
1.00
0.72
0.40
-0.04
-0.64
-1.41
-2.31
-3.20
-3.97
-4.52
-4.83
-4.89
-4.66
-4.17
-3.43
-2.54
-1.61
-0.76
-0.03
0.59
1.16
1.72
2.25
2.69
2.94
2.95
2.73
2.34
1.87
1.40
1.00
0.67
0.43
0.31
0.33
0.48
0.75
1.07
1.35
1.55
1.64
1.64
1.57
1.43
1.20
0.85
0.36
-0.26
-1.01
-1.85
-2.72
-3.53
-4.19
-4.65
-4.87
-4.86
-4.61
-4.10
-3.26
-2.09
-0.66
0.86
2.19
3.10
3.47
3.34
2.88
2.30
1.79
1.46
1.32
1.36
1.49
1.63
1.71
1.69
1.55
1.29
0.96
0.59
0.26
0.02
-0.05
0.07
0.39
0.79
1.14
1.27
1.12
0.70
0.11
-0.53
-1.13
-1.68
-2.19
-2.68
-3.14
-3.52
-3.78
-3.92
-3.94
-3.86
-3.66
-3.29
-2.69
-1.83
-0.79
0.30
1.28
2.04
2.55
2.86
3.04
3.10
3.01
2.72
2.22
1.60
1.05
0.74
0.74
0.99
1.31
1.50
1.48
1.31
1.15
1.12
1.26
1.46
1.61
1.60
1.45
1.25
1.09
0.99
0.88
0.60
0.06
-0.77
-1.82
-2.92
-3.89
-4.62
-5.04
-5.15
-5.00
-4.59
-3.95
-3.08
-2.07
-1.01
-0.07
0.68
1.22
1.65
2.10
2.62
3.15
3.50
3.47
2.96
2.09
1.15
0.46
0.23
0.41
0.81
1.17
1.35
1.35
1.32
1.37
1.55
1.77
1.91
1.91
1.77
1.56
1.35
1.17
0.99
0.77
0.48
0.16
-0.17
-0.51
-0.90
-1.39
-2.05
-2.83
-3.65
-4.39
-4.91
-5.16
-5.11
-4.77
-4.13
-3.22
-2.10
-0.87
0.29
1.21
1.81
2.05
2.01
1.80
1.50
1.18
0.90
0.74
0.74
0.93
1.25
1.54
1.67
1.55
1.22
0.84
0.60
0.62
0.88
1.26
1.58
1.72
1.65
1.45
1.20
0.97
0.75
0.49
0.17
-0.23
-0.67
-1.11
-1.56
-2.05
-2.63
-3.28
-3.92
-4.38
-4.50
-4.19
-3.47
-2.46
-1.34
-0.28
0.60
1.26
1.72
2.01
2.17
2.20
2.09
1.84
1.50
1.12
0.77
0.49
0.27
0.11
-0.01
-0.07
-0.02
0.18
0.52
0.91
1.25
1.44
1.49
1.43
1.36
1.32
1.26
1.13
0.88
0.51
0.07
-0.39
-0.87
-1.39
-2.03
-2.79
-3.63
-4.41
-5.00
-5.26
-5.11
-4.56
-3.70
-2.68
-1.64
-0.71
0.07
0.71
1.27
1.76
2.17
2.47
2.64
2.68
2.66
2.63
2.61
2.57
2.45
2.22
1.89
1.50
1.14
0.86
0.69
0.64
0.69
0.81
0.95
1.10
1.21
1.28
1.28
1.21
1.05
0.84
0.59
0.33
0.06
-0.24
-0.61
-1.13
-1.81
-2.64
-3.55
-4.42
-5.10
-5.48
-5.47
-5.04
-4.23
-3.15
-1.91
-0.66
0.50
1.47
2.16
2.53
2.55
2.28
1.81
1.34
1.03
1.01
1.27
1.69
2.06
2.24
2.14
1.85
1.52
1.31
1.30
1.47
1.73
1.95
2.04
1.98
1.78
1.51
1.21
0.94
0.71
0.55
0.44
0.35
0.22
-0.02
-0.43
-1.03
-1.84
-2.80
-3.81
-4.71
-5.30
-5.45
-5.12
-4.42
-3.53
-2.64
-1.87
-1.21
-0.59
0.11
0.89
1.69
2.34
2.67
2.65
2.32
1.88
1.49
1.27
1.25
1.32
1.39
1.39
1.34
1.27
1.23
1.22
1.24
1.26
1.31
1.40
1.52
1.65
1.70
1.63
1.40
1.04
0.61
0.15
-0.31
-0.77
-1.23
-1.73
-2.22
-2.70
-3.12
-3.46
-3.68
-3.75
-3.62
-3.29
-2.75
-2.02
-1.16
-0.25
0.62
1.36
1.88
2.16
2.19
2.03
1.80
1.58
1.43
1.37
1.37
1.36
1.33
1.26
1.22
1.22
1.27
1.31
1.25
1.07
0.81
0.57
0.48
0.57
0.78
0.96
0.97
0.76
0.43
0.11
-0.10
-0.22
-0.43
-0.89
-1.71
-2.78
-3.88
-4.77
-5.25
-5.27
-4.87
-4.16
-3.20
-2.09
-0.91
0.23
1.17
1.82
2.17
2.26
2.20
2.09
1.96
1.83
1.68
1.50
1.31
1.18
1.14
1.20
1.35
1.53
1.65
1.67
1.57
1.40
1.22
1.10
1.05
1.01
0.89
0.68
0.43
0.24
0.18
0.21
0.21
0.02
-0.46
-1.19
-2.04
-2.87
-3.59
-4.19
-4.64
-4.87
-4.75
-4.19
-3.24
-2.06
-0.91
0.01
0.63
1.04
1.41
1.81
2.20
2.47
2.49
2.23
1.79
1.35
1.04
0.92
0.93
0.96
0.94
0.87
0.84
0.90
1.06
1.28
1.49
1.62
1.66
1.59
1.41
1.15
0.84
0.53
0.29
0.13
0.06
0.00
-0.11
-0.33
-0.70
-1.22
-1.88
-2.68
-3.56
-4.40
-5.03
-5.28
-5.08
-4.50
-3.71
-2.88
-2.11
-1.42
-0.77
-0.16
0.35
0.69
0.82
0.78
0.67
0.62
0.68
0.81
0.92
0.94
0.86
0.73
0.61
0.53
0.49
0.53
0.69
1.00
1.48
2.03
2.54
2.90
3.07
3.10
3.10
3.14
3.20
3.15
2.87
2.29
1.42
0.41
-0.63
-1.61
-2.51
-3.34
-4.08
-4.65
-4.94
-4.85
-4.34
-3.52
-2.53
-1.54
-0.66
0.08
0.71
1.29
1.82
2.25
2.49
2.46
2.15
1.61
1.00
0.49
0.23
0.24
0.45
0.73
0.96
1.12
1.22
1.36
1.59
1.89
2.16
2.29
2.19
1.84
1.33
0.79
0.34
0.03
-0.18
-0.37
-0.61
-0.91
-1.26
-1.62
-1.97
-2.35
-2.79
-3.30
-3.76
-4.02
-3.94
-3.45
-2.68
-1.79
-1.00
-0.36
0.17
0.74
1.42
2.22
3.00
3.62
3.95
4.02
3.88
3.63
3.34
3.07
2.83
2.65
2.56
2.59
2.69
2.78
2.75
2.56
2.20
1.75
1.33
1.04
0.93
0.93
0.93
0.85
0.63
0.32
0.01
-0.27
-0.57
-0.98
-1.63
-2.57
-3.70
-4.84
-5.72
-6.19
-6.15
-5.64
-4.79
-3.72
-2.54
-1.35
-0.20
0.84
1.71
2.31
2.60
2.58
2.33
1.95
1.56
1.24
1.05
1.01
1.09
1.27
1.45
1.51
1.40
1.09
0.67
0.26
-0.03
-0.15
-0.13
-0.04
0.09
0.24
0.48
0.82
1.25
1.63
1.80
1.62
1.03
0.11
-0.97
-2.01
-2.86
-3.44
-3.79
-3.96
-4.00
-3.95
-3.75
-3.36
-2.76
-1.93
-0.95
0.09
1.08
1.89
2.43
2.64
2.52
2.14
1.65
1.21
0.98
1.02
1.30
1.69
2.03
2.18
2.08
1.82
1.52
1.35
1.37
1.57
1.82
2.00
2.01
1.86
1.57
1.20
0.73
0.08
-0.82
-1.99
-3.36
-4.78
-6.08
-7.14
-7.90
-8.38
-8.60
-8.56
-8.18
-7.40
-6.17
-4.53
-2.62
-0.60
1.38
3.20
4.76
5.99
6.81
7.15
6.98
6.37
5.47
4.48
3.60
2.87
2.26
1.63
0.90
0.09
-0.68
-1.25
-1.51
-1.48
-1.29
-1.08
-0.91
-0.74
-0.49
-0.11
0.36
0.79
1.00
0.86
0.32
-0.56
-1.66
-2.83
-3.90
-4.78
-5.37
-5.66
-5.63
-5.32
-4.77
-4.03
-3.16
-2.21
-1.27
-0.39
0.41
1.13
1.81
2.47
3.08
3.58
3.92
4.03
3.92
3.61
3.20
2.79
2.44
2.20
2.09
2.09
2.17
2.34
2.54
2.72
2.79
2.68
2.39
2.02
1.66
1.40
1.20
0.98
0.61
0.07
-0.64
-1.43
-2.23
-3.05
-3.91
-4.79
-5.60
-6.12
-6.15
-5.56
-4.43
-2.95
-1.42
-0.08
0.90
1.53
1.87
2.04
2.15
2.26
2.38
2.50
2.59
2.65
2.64
2.54
2.34
2.04
1.68
1.33
1.08
0.98
1.04
1.22
1.46
1.65
1.74
1.71
1.59
1.41
1.21
1.03
0.89
0.80
0.71
0.56
0.29
-0.19
-0.89
-1.80
-2.80
-3.79
-4.63
-5.20
-5.40
-5.17
-4.52
-3.49
-2.22
-0.86
0.44
1.52
2.30
2.71
2.73
2.40
1.82
1.11
0.46
0.02
-0.11
0.06
0.43
0.85
1.17
1.29
1.23
1.07
0.90
0.80
0.80
0.86
0.95
1.09
1.31
1.59
1.90
2.09
2.03
1.61
0.85
-0.14
-1.18
-2.12
-2.88
-3.43
-3.82
-4.08
-4.22
-4.22
-4.04
-3.63
-2.97
-2.11
-1.14
-0.21
0.55
1.07
1.35
1.45
1.45
1.38
1.25
1.08
0.90
0.79
0.80
0.95
1.14
1.27
1.25
1.09
0.91
0.86
1.00
1.31
1.63
1.80
1.68
1.27
0.70
0.15
-0.26
-0.45
-0.52
-0.61
-0.87
-1.41
-2.19
-3.05
-3.77
-4.12
-4.02
-3.49
-2.69
-1.84
-1.09
-0.50
-0.02
0.45
0.96
1.47
1.88
2.08
2.05
1.86
1.64
1.49
1.43
1.42
1.39
1.31
1.20
1.11
1.12
1.20
1.31
1.37
1.36
1.31
1.27
1.31
1.44
1.60
1.63
1.43
0.97
0.30
-0.44
-1.16
-1.80
-2.42
-3.06
-3.70
-4.28
-4.66
-4.77
-4.58
-4.15
-3.56
-2.91
-2.22
-1.53
-0.85
-0.19
0.43
1.01
1.53
1.99
2.35
2.58
2.64
2.54
2.32
2.06
1.83
1.67
1.56
1.48
1.44
1.43
1.50
1.66
1.87
2.09
2.22
2.23
2.14
1.98
1.82
1.64
1.41
1.05
0.56
-0.00
-0.54
-0.96
-1.28
-1.57
-2.00
-2.64
-3.46
-4.31
-4.95
-5.19
-4.96
-4.33
-3.45
-2.51
-1.63
-0.82
-0.09
0.57
1.15
1.59
1.88
1.98
1.92
1.71
1.38
1.00
0.62
0.34
0.23
0.33
0.62
1.00
1.37
1.64
1.77
1.78
1.71
1.63
1.54
1.43
1.26
1.04
0.77
0.52
0.33
0.24
0.22
0.21
0.09
-0.19
-0.70
-1.40
-2.25
-3.13
-3.92
-4.52
-4.85
-4.90
-4.67
-4.20
-3.50
-2.61
-1.56
-0.41
0.69
1.62
2.25
2.57
2.62
2.53
2.40
2.28
2.18
2.04
1.79
1.45
1.06
0.72
0.54
0.55
0.74
1.04
1.35
1.57
1.66
1.60
1.42
1.17
0.85
0.48
0.03
-0.46
-0.94
-1.29
-1.39
-1.24
-0.96
-0.79
-0.96
-1.58
-2.57
-3.66
-4.50
-4.83
-4.55
-3.76
-2.72
-1.68
-0.85
-0.25
0.18
0.56
0.98
1.44
1.86
2.14
2.20
2.06
1.77
1.43
1.13
0.91
0.81
0.82
0.92
1.10
1.29
1.46
1.55
1.53
1.42
1.24
1.04
0.82
0.59
0.36
0.16
0.01
-0.06
-0.04
0.03
0.06
-0.05
-0.42
-1.12
-2.12
-3.30
-4.46
-5.36
-5.82
-5.74
-5.15
-4.17
-2.99
-1.79
-0.68
0.31
1.17
1.92
2.52
2.91
3.03
2.86
2.47
1.99
1.58
1.34
1.29
1.39
1.52
1.64
1.70
1.71
1.69
1.62
1.48
1.29
1.08
0.94
0.91
0.99
1.12
1.20
1.15
0.91
0.53
0.09
-0.31
-0.63
-0.88
-1.14
-1.53
-2.09
-2.81
-3.56
-4.19
-4.55
-4.55
-4.20
-3.58
-2.74
-1.76
-0.69
0.39
1.38
2.15
2.61
2.70
2.46
2.00
1.49
1.07
0.86
0.86
1.03
1.24
1.41
1.50
1.52
1.53
1.55
1.56
1.52
1.39
1.18
0.95
0.78
0.72
0.77
0.89
1.01
1.09
1.08
0.94
0.61
0.05
-0.75
-1.72
-2.73
-3.63
-4.27
-4.55
-4.48
-4.09
-3.45
-2.67
-1.83
-1.01
-0.25
0.44
1.07
1.67
2.20
2.59
2.75
2.66
2.40
2.09
1.85
1.72
1.62
1.46
1.18
0.82
0.54
0.47
0.63
0.94
1.22
1.36
1.33
1.16
0.93
0.64
0.29
-0.15
-0.61
-0.99
-1.22
-1.32
-1.44
-1.75
-2.36
-3.19
-4.01
-4.54
-4.53
-3.95
-2.96
-1.79
-0.70
0.18
0.87
1.46
2.03
2.57
2.97
3.12
2.96
2.52
1.93
1.38
0.98
0.79
0.78
0.89
1.08
1.30
1.51
1.68
1.75
1.70
1.55
1.35
1.16
1.01
0.90
0.77
0.58
0.29
-0.12
-0.66
-1.35
-2.17
-3.08
-3.95
-4.62
-4.89
-4.68
-4.00
-3.00
-1.93
-0.99
-0.30
0.12
0.35
0.49
0.62
0.77
0.93
1.09
1.24
1.37
1.48
1.54
1.55
1.49
1.34
1.13
0.88
0.65
0.51
0.53
0.70
0.98
1.27
1.47
1.53
1.51
1.46
1.46
1.49
1.50
1.44
1.25
0.88
0.32
-0.47
-1.49
-2.69
-3.89
-4.88
-5.43
-5.42
-4.91
-4.05
-3.01
-1.96
-0.96
-0.03
0.78
1.41
1.82
2.00
1.99
1.91
1.86
1.88
1.91
1.87
1.68
1.35
1.00
0.78
0.78
0.99
1.31
1.57
1.65
1.56
1.36
1.15
1.00
0.92
0.89
0.88
0.88
0.87
0.85
0.77
0.62
0.38
0.08
-0.28
-0.71
-1.21
-1.83
-2.53
-3.26
-3.91
-4.37
-4.51
-4.28
-3.65
-2.69
-1.55
-0.41
0.53
1.16
1.43
1.44
1.30
1.16
1.10
1.16
1.28
1.38
1.38
1.25
1.03
0.80
0.65
0.58
0.57
0.54
0.41
0.14
-0.22
-0.64
-1.05
-1.40
-1.68
-1.87
-1.95
-1.91
-1.72
-1.37
-0.88
-0.31
0.24
0.64
0.74
0.50
-0.07
-0.82
-1.59
-2.21
-2.60
-2.76
-2.75
-2.61
-2.35
-1.94
-1.34
-0.58
0.30
1.17
1.95
2.56
2.98
3.21
3.24
3.05
2.64
2.06
1.41
0.80
0.36
0.11
0.02
0.02
0.08
0.18
0.37
0.64
0.97
1.25
1.39
1.32
1.07
0.73
0.41
0.17
0.03
-0.04
-0.06
-0.11
-0.25
-0.55
-1.07
-1.81
-2.71
-3.61
-4.31
-4.67
-4.62
-4.15
-3.33
-2.27
-1.12
-0.05
0.80
1.34
1.57
1.56
1.48
1.44
1.52
1.69
1.91
2.08
2.15
2.07
1.84
1.49
1.08
0.73
0.50
0.45
0.53
0.70
0.91
1.13
1.39
1.66
1.86
1.89
1.64
1.10
0.37
-0.40
-1.06
-1.57
-2.02
-2.53
-3.20
-3.99
-4.75
-5.26
-5.38
-5.06
-4.41
-3.60
-2.79
-2.06
-1.38
-0.71
0.01
0.76
1.46
2.02
2.33
2.39
2.30
2.16
2.07
2.03
1.98
1.86
1.65
1.42
1.29
1.34
1.55
1.77
1.83
1.63
1.23
0.85
0.72
0.95
1.47
2.05
2.39
2.33
1.90
1.26
0.60
0.01
-0.57
-1.26
-2.16
-3.21
-4.23
-4.96
-5.25
-5.04
-4.43
-3.56
-2.55
-1.50
-0.48
0.44
1.18
1.69
1.97
2.09
2.13
2.16
2.20
2.22
2.20
2.12
1.98
1.80
1.60
1.41
1.25
1.17
1.20
1.34
1.53
1.72
1.83
1.85
1.80
1.73
1.70
1.68
1.61
1.42
1.06
0.59
0.11
-0.27
-0.51
-0.72
-1.05
-1.62
-2.46
-3.44
-4.31
-4.86
-4.99
-4.70
-4.12
-3.38
-2.56
-1.71
-0.86
-0.07
0.62
1.18
1.60
1.93
2.20
2.43
2.59
2.62
2.50
2.24
1.91
1.59
1.32
1.13
1.00
0.95
1.00
1.16
1.42
1.71
1.92
2.02
1.99
1.94
1.95
2.06
2.22
2.28
2.10
1.62
0.91
0.14
-0.53
-0.99
-1.23
-1.35
-1.45
-1.65
-2.02
-2.54
-3.16
-3.78
-4.27
-4.52
-4.46
-4.07
-3.38
-2.46
-1.40
-0.30
0.74
1.61
2.22
2.54
2.57
2.37
2.05
1.72
1.43
1.23
1.10
1.01
0.93
0.86
0.81
0.82
0.91
1.09
1.35
1.65
1.93
2.09
2.06
1.85
1.52
1.22
1.04
1.01
1.07
1.09
0.98
0.72
0.34
-0.11
-0.60
-1.14
-1.76
-2.46
-3.17
-3.78
-4.17
-4.24
-3.97
-3.39
-2.62
-1.79
-1.02
-0.40
0.04
0.35
0.59
0.78
0.93
1.01
1.01
0.97
0.95
1.00
1.10
1.19
1.19
1.09
0.96
0.90
0.98
1.17
1.39
1.49
1.44
1.25
1.00
0.78
0.60
0.43
0.23
0.00
-0.20
-0.32
-0.35
-0.34
-0.40
-0.63
-1.07
-1.70
-2.42
-3.13
-3.71
-4.08
-4.18
-4.01
-3.57
-2.92
-2.17
-1.41
-0.74
-0.20
0.24
0.65
1.09
1.56
1.95
2.12
1.99
1.60
1.12
0.76
0.62
0.68
0.79
0.79
0.64
0.44
0.31
0.36
0.56
0.81
1.01
1.11
1.14
1.15
1.19
1.21
1.15
0.96
0.64
0.22
-0.29
-0.87
-1.54
-2.29
-3.04
-3.73
-4.26
-4.58
-4.69
-4.60
-4.31
-3.81
-3.12
-2.28
-1.38
-0.53
0.17
0.68
1.03
1.27
1.47
1.60
1.62
1.47
1.16
0.79
0.50
0.41
0.57
0.91
1.27
1.51
1.55
1.44
1.29
1.20
1.21
1.29
1.33
1.28
1.11
0.88
0.64
0.44
0.26
0.03
-0.34
-0.88
-1.55
-2.27
-2.94
-3.47
-3.82
-3.99
-4.02
-3.94
-3.77
-3.51
-3.16
-2.68
-2.05
-1.25
-0.33
0.62
1.47
2.08
2.39
2.42
2.26
2.00
1.75
1.55
1.43
1.38
1.37
1.39
1.42
1.45
1.49
1.55
1.64
1.73
1.78
1.77
1.70
1.63
1.61
1.65
1.69
1.64
1.40
0.97
0.44
-0.05
-0.39
-0.58
-0.72
-0.92
-1.29
-1.85
-2.53
-3.23
-3.87
-4.41
-4.81
-5.04
-5.02
-4.70
-4.06
-3.16
-2.10
-0.97
0.11
1.13
2.02
2.75
3.24
3.41
3.26
2.83
2.27
1.74
1.37
1.20
1.18
1.22
1.25
1.24
1.22
1.25
1.36
1.52
1.67
1.75
1.75
1.70
1.68
1.71
1.80
1.87
1.87
1.77
1.58
1.35
1.09
0.82
0.48
0.06
-0.44
-0.98
-1.47
-1.90
-2.25
-2.61
-3.04
-3.57
-4.13
-4.61
-4.81
-4.59
-3.90
-2.82
-1.53
-0.28
0.72
1.37
1.68
1.79
1.84
1.93
2.06
2.15
2.13
1.97
1.74
1.51
1.35
1.28
1.28
1.33
1.43
1.62
1.90
2.21
2.46
2.57
2.47
2.16
1.71
1.20
0.71
0.30
0.03
-0.10
-0.14
-0.17
-0.28
-0.50
-0.85
-1.29
-1.78
-2.30
-2.83
-3.33
-3.72
-3.91
-3.81
-3.42
-2.79
-2.00
-1.13
-0.23
0.66
1.49
2.16
2.58
2.69
2.49
2.07
1.53
0.99
0.57
0.34
0.36
0.65
1.13
1.70
2.17
2.39
2.31
1.97
1.51
1.06
0.76
0.61
0.62
0.73
0.89
1.05
1.17
1.18
1.07
0.85
0.58
0.33
0.11
-0.12
-0.50
-1.11
-1.97
-2.98
-3.96
-4.69
-5.02
-4.92
-4.47
-3.80
-3.02
-2.18
-1.28
-0.34
0.59
1.40
1.97
2.21
2.12
1.83
1.47
1.18
1.00
0.90
0.81
0.71
0.66
0.72
0.94
1.25
1.57
1.79
1.86
1.83
1.75
1.72
1.75
1.82
1.88
1.90
1.86
1.75
1.60
1.44
1.26
1.09
0.89
0.63
0.28
-0.18
-0.77
-1.45
-2.17
-2.88
-3.49
-3.91
-4.06
-3.87
-3.39
-2.71
-1.99
-1.37
-0.91
-0.57
-0.30
-0.03
0.25
0.49
0.67
0.76
0.82
0.89
0.99
1.09
1.14
1.11
1.05
1.03
1.11
1.27
1.45
1.52
1.46
1.32
1.23
1.30
1.51
1.77
1.88
1.74
1.34
0.82
0.33
-0.03
-0.25
-0.42
-0.61
-0.86
-1.12
-1.34
-1.49
-1.61
-1.77
-2.03
-2.40
-2.83
-3.20
-3.40
-3.36
-3.07
-2.58
-1.95
-1.28
-0.66
-0.17
0.13
0.25
0.24
0.16
0.12
0.20
0.44
0.81
1.25
1.62
1.80
1.70
1.34
0.80
0.24
-0.18
-0.37
-0.30
-0.03
0.38
0.84
1.25
1.56
1.68
1.60
1.36
1.05
0.78
0.58
0.42
0.24
-0.04
-0.41
-0.83
-1.25
-1.62
-1.98
-2.36
-2.78
-3.18
-3.43
-3.42
-3.08
-2.45
-1.62
-0.70
0.22
1.07
1.76
2.21
2.34
2.14
1.66
1.06
0.49
0.11
-0.03
0.08
0.34
0.63
0.84
0.88
0.71
0.38
-0.04
-0.43
-0.69
-0.74
-0.59
-0.27
0.15
0.56
0.88
1.04
0.99
0.76
0.39
-0.05
-0.50
-0.95
-1.40
-1.84
-2.29
-2.69
-3.02
-3.23
-3.30
-3.20
-2.92
-2.51
-1.99
-1.44
-0.89
-0.35
0.19
0.70
1.14
1.41
1.47
1.32
1.05
0.80
0.67
0.70
0.88
1.13
1.37
1.54
1.61
1.54
1.35
1.12
0.92
0.83
0.88
1.03
1.16
1.18
1.06
0.83
0.55
0.31
0.13
-0.01
-0.19
-0.50
-1.03
-1.79
-2.74
-3.72
-4.53
-4.99
-4.97
-4.45
-3.55
-2.47
-1.40
-0.49
0.20
0.66
0.96
1.14
1.25
1.31
1.34
1.36
1.39
1.45
1.53
1.61
1.70
1.76
1.79
1.80
1.77
1.70
1.59
1.45
1.31
1.22
1.22
1.29
1.38
1.37
1.21
0.88
0.44
0.02
-0.28
-0.46
-0.59
-0.82
-1.26
-1.95
-2.81
-3.68
-4.38
-4.74
-4.70
-4.26
-3.48
-2.47
-1.38
-0.34
0.55
1.27
1.83
2.26
2.60
2.80
2.81
2.58
2.15
1.64
1.22
1.05
1.18
1.57
2.02
2.34
2.41
2.21
1.85
1.50
1.30
1.29
1.43
1.60
1.72
1.72
1.61
1.41
1.16
0.88
0.60
0.35
0.11
-0.11
-0.34
-0.61
-0.94
-1.34
-1.79
-2.27
-2.72
-3.10
-3.35
-3.42
-3.28
-2.92
-2.34
-1.59
-0.72
0.19
1.07
1.81
2.35
2.65
2.70
2.53
2.23
1.85
1.52
1.30
1.27
1.42
1.70
2.00
2.22
2.29
2.23
2.11
1.99
1.91
1.86
1.80
1.69
1.51
1.27
1.00
0.72
0.45
0.22
0.05
-0.05
-0.08
-0.08
-0.10
-0.23
-0.52
-1.01
-1.69
-2.50
-3.33
-4.01
-4.40
-4.37
-3.93
-3.14
-2.15
-1.15
-0.26
0.43
0.93
1.28
1.57
1.86
2.15
2.41
2.53
2.43
2.05
1.47
0.84
0.33
0.10
0.14
0.34
0.54
0.63
0.58
0.48
0.45
0.57
0.82
1.13
1.38
1.51
1.52
1.47
1.42
1.41
1.39
1.26
0.95
0.39
-0.35
-1.13
-1.79
-2.24
-2.47
-2.57
-2.68
-2.86
-3.10
-3.31
-3.37
-3.21
-2.80
-2.16
-1.34
-0.39
0.56
1.40
1.99
2.25
2.20
1.91
1.52
1.14
0.83
0.59
0.39
0.22
0.07
-0.04
-0.10
-0.14
-0.14
-0.10
0.00
0.19
0.46
0.76
1.03
1.17
1.17
1.04
0.85
0.67
0.52
0.35
0.10
-0.25
-0.69
-1.18
-1.66
-2.15
-2.70
-3.31
-3.94
-4.43
-4.59
-4.29
-3.56
-2.55
-1.51
-0.62
0.02
0.41
0.63
0.74
0.76
0.71
0.62
0.52
0.47
0.50
0.59
0.69
0.72
0.68
0.58
0.50
0.53
0.69
0.96
1.27
1.57
1.80
1.93
1.97
1.92
1.78
1.60
1.41
1.24
1.11
1.01
0.91
0.75
0.46
-0.04
-0.81
-1.89
-3.21
-4.66
-6.09
-7.36
-8.36
-9.01
-9.24
-9.01
-8.29
-7.15
-5.72
-4.19
-2.74
-1.46
-0.37
0.57
1.39
2.10
2.66
3.07
3.33
3.49
3.59
3.69
3.81
3.95
4.05
4.05
3.88
3.48
2.91
2.23
1.59
1.09
0.79
0.67
0.66
0.68
0.70
0.70
0.70
0.72
0.75
0.72
0.60
0.32
-0.16
-0.84
-1.70
-2.63
-3.49
-4.15
-4.49
-4.51
-4.23
-3.73
-3.07
-2.29
-1.45
-0.60
0.14
0.69
1.03
1.20
1.31
1.41
1.49
1.48
1.33
1.07
0.77
0.54
0.43
0.42
0.44
0.44
0.45
0.52
0.70
0.98
1.30
1.55
1.65
1.61
1.47
1.35
1.28
1.27
1.27
1.20
1.03
0.79
0.55
0.36
0.25
0.13
-0.10
-0.55
-1.22
-2.02
-2.82
-3.44
-3.81
-3.92
-3.82
-3.54
-3.07
-2.35
-1.34
-0.03
1.41
2.77
3.77
4.24
4.15
3.63
2.93
2.32
2.00
2.01
2.26
2.57
2.80
2.86
2.79
2.70
2.69
2.80
2.99
3.15
3.20
3.10
2.88
2.59
2.27
1.91
1.46
0.84
0.01
-1.04
-2.27
-3.57
-4.86
-6.07
-7.16
-8.11
-8.86
-9.34
-9.41
-8.97
-8.00
-6.59
-4.92
-3.14
-1.42
0.16
1.53
2.60
3.31
3.62
3.61
3.43
3.28
3.28
3.43
3.59
3.61
3.38
2.92
2.35
1.82
1.43
1.22
1.18
1.27
1.48
1.74
1.99
2.13
2.12
1.95
1.67
1.33
0.95
0.54
0.11
-0.32
-0.69
-1.01
-1.34
-1.80
-2.48
-3.41
-4.45
-5.36
-5.92
-6.01
-5.66
-5.02
-4.22
-3.35
-2.39
-1.32
-0.19
0.92
1.87
2.58
3.03
3.28
3.44
3.56
3.63
3.60
3.43
3.11
2.70
2.28
1.95
1.76
1.72
1.84
2.05
2.28
2.47
2.54
2.45
2.20
1.79
1.30
0.80
0.40
0.17
0.14
0.26
0.45
0.61
0.67
0.61
0.43
0.13
-0.33
-1.03
-2.01
-3.19
-4.37
-5.27
-5.65
-5.44
-4.73
-3.79
-2.88
-2.17
-1.63
-1.14
-0.59
0.06
0.72
1.25
1.57
1.70
1.75
1.83
1.99
2.13
2.16
1.99
1.68
1.35
1.15
1.16
1.31
1.49
1.60
1.60
1.52
1.44
1.39
1.38
1.33
1.18
0.91
0.60
0.35
0.27
0.39
0.66
0.94
1.08
1.02
0.79
0.49
0.23
0.02
-0.16
-0.41
-0.78
-1.24
-1.72
-2.16
-2.55
-2.91
-3.29
-3.70
-4.08
-4.30
-4.28
-3.95
-3.36
-2.56
-1.62
-0.63
0.38
1.30
2.06
2.57
2.77
2.67
2.36
1.95
1.57
1.34
1.28
1.38
1.58
1.77
1.88
1.86
1.76
1.63
1.55
1.52
1.53
1.54
1.50
1.43
1.31
1.15
0.94
0.68
0.42
0.23
0.20
0.32
0.55
0.79
0.93
0.92
0.74
0.43
-0.03
-0.64
-1.36
-2.16
-2.95
-3.63
-4.14
-4.46
-4.60
-4.54
-4.26
-3.73
-2.95
-1.99
-0.98
-0.05
0.65
1.06
1.19
1.09
0.87
0.64
0.52
0.56
0.77
1.09
1.40
1.58
1.57
1.36
1.02
0.66
0.34
0.16
0.13
0.27
0.57
0.96
1.38
1.71
1.85
1.74
1.39
0.91
0.44
0.15
0.14
0.37
0.69
0.88
0.73
0.15
-0.82
-2.01
-3.23
-4.27
-4.99
-5.33
-5.23
-4.71
-3.84
-2.74
-1.59
-0.56
0.23
0.75
1.05
1.23
1.37
1.48
1.54
1.50
1.35
1.09
0.81
0.57
0.42
0.39
0.45
0.58
0.75
0.96
1.20
1.45
1.66
1.74
1.63
1.33
0.89
0.44
0.10
-0.02
0.07
0.26
0.43
0.46
0.29
-0.08
-0.63
-1.33
-2.15
-3.04
-3.93
-4.69
-5.21
-5.40
-5.20
-4.62
-3.71
-2.60
-1.45
-0.43
0.32
0.76
0.97
1.11
1.31
1.62
1.95
2.12
1.99
1.53
0.87
0.26
-0.09
-0.05
0.32
0.82
1.24
1.45
1.49
1.47
1.53
1.73
2.00
2.24
2.36
2.31
2.17
1.97
1.75
1.46
1.01
0.35
-0.51
-1.49
-2.50
-3.41
-4.17
-4.72
-5.05
-5.20
-5.18
-5.02
-4.71
-4.21
-3.47
-2.50
-1.37
-0.21
0.82
1.61
2.15
2.48
2.66
2.73
2.69
2.54
2.30
2.04
1.89
1.91
2.08
2.33
2.52
2.56
2.43
2.18
1.91
1.70
1.55
1.42
1.27
1.09
0.95
0.90
0.99
1.19
1.38
1.44
1.28
0.89
0.31
-0.42
-1.29
-2.29
-3.36
-4.38
-5.21
-5.65
-5.61
-5.12
-4.32
-3.43
-2.60
-1.90
-1.30
-0.72
-0.07
0.65
1.41
2.11
2.66
2.98
3.04
2.88
2.54
2.13
1.73
1.42
1.24
1.21
1.29
1.47
1.73
2.07
2.45
2.84
3.13
3.27
3.19
2.95
2.63
2.30
2.00
1.70
1.36
0.95
0.50
0.08
-0.24
-0.40
-0.43
-0.35
-0.25
-0.16
-0.14
-0.22
-0.44
-0.86
-1.50
-2.38
-3.43
-4.50
-5.43
-6.03
-6.16
-5.80
-5.00
-3.94
-2.78
-1.66
-0.64
0.26
1.06
1.73
2.23
2.51
2.55
2.43
2.25
2.11
2.09
2.15
2.22
2.25
2.22
2.16
2.14
2.15
2.14
2.07
1.89
1.68
1.53
1.56
1.79
2.14
2.45
2.58
2.44
2.10
1.68
1.31
1.07
0.93
0.80
0.60
0.29
-0.13
-0.62
-1.17
-1.80
-2.55
-3.43
-4.37
-5.19
-5.69
-5.75
-5.34
-4.57
-3.65
-2.76
-2.03
-1.45
-0.97
-0.50
0.03
0.64
1.28
1.88
2.35
2.64
2.72
2.60
2.35
2.03
1.71
1.48
1.37
1.39
1.50
1.62
1.65
1.52
1.22
0.83
0.50
0.35
0.43
0.70
1.03
1.27
1.32
1.17
0.87
0.52
0.18
-0.14
-0.51
-0.99
-1.63
-2.39
-3.16
-3.78
-4.09
-4.03
-3.62
-2.98
-2.24
-1.51
-0.88
-0.35
0.07
0.41
0.67
0.88
1.03
1.14
1.23
1.30
1.35
1.36
1.31
1.21
1.08
0.97
0.93
0.98
1.11
1.26
1.38
1.40
1.29
1.10
0.88
0.71
0.62
0.60
0.63
0.67
0.69
0.71
0.71
0.63
0.42
0.01
-0.61
-1.37
-2.13
-2.79
-3.27
-3.54
-3.67
-3.71
-3.70
-3.64
-3.47
-3.13
-2.57
-1.81
-0.95
-0.12
0.55
0.97
1.13
1.11
1.01
0.94
0.94
1.00
1.06
1.05
0.96
0.83
0.74
0.77
0.92
1.12
1.26
1.25
1.06
0.79
0.54
0.42
0.46
0.59
0.75
0.85
0.87
0.81
0.75
0.69
0.58
0.34
-0.15
-0.92
-1.93
-3.01
-3.95
-4.57
-4.82
-4.74
-4.42
-3.97
-3.43
-2.80
-2.06
-1.24
-0.38
0.44
1.13
1.65
1.95
2.08
2.08
2.02
1.97
1.93
1.91
1.86
1.77
1.65
1.56
1.55
1.65
1.83
2.04
2.21
2.32
2.33
2.29
2.20
2.09
1.95
1.74
1.42
0.99
0.52
0.08
-0.24
-0.40
-0.44
-0.47
-0.57
-0.79
-1.14
-1.58
-2.09
-2.66
-3.29
-3.91
-4.45
-4.82
-4.95
-4.82
-4.46
-3.94
-3.27
-2.45
-1.47
-0.37
0.76
1.77
2.52
2.94
3.01
2.84
2.57
2.32
2.18
2.12
2.08
1.95
1.71
1.41
1.15
1.00
1.02
1.14
1.29
1.39
1.40
1.32
1.18
1.02
0.85
0.68
0.54
0.41
0.30
0.19
0.05
-0.11
-0.27
-0.41
-0.53
-0.70
-0.99
-1.46
-2.12
-2.89
-3.64
-4.25
-4.60
-4.66
-4.41
-3.92
-3.24
-2.47
-1.65
-0.83
-0.02
0.76
1.47
2.05
2.44
2.66
2.76
2.84
2.94
3.00
2.94
2.69
2.30
1.91
1.68
1.67
1.83
2.01
2.04
1.86
1.51
1.13
0.83
0.69
0.70
0.78
0.87
0.90
0.81
0.55
0.11
-0.48
-1.17
-1.85
-2.47
-2.98
-3.38
-3.67
-3.85
-3.90
-3.79
-3.55
-3.20
-2.78
-2.30
-1.71
-0.94
0.01
1.07
2.07
2.81
3.12
2.96
2.46
1.82
1.24
0.88
0.77
0.84
0.95
0.98
0.87
0.67
0.48
0.37
0.39
0.48
0.58
0.64
0.68
0.74
0.85
0.94
0.93
0.73
0.35
-0.13
-0.58
-0.92
-1.16
-1.36
-1.62
-1.99
-2.48
-3.04
-3.57
-4.00
-4.23
-4.16
-3.74
-2.97
-1.93
-0.75
0.36
1.23
1.76
1.97
1.95
1.87
1.85
1.92
2.04
2.09
1.98
1.72
1.37
1.05
0.83
0.70
0.61
0.53
0.45
0.43
0.53
0.74
1.02
1.27
1.45
1.53
1.55
1.53
1.47
1.33
1.09
0.73
0.30
-0.17
-0.66
-1.21
-1.87
-2.64
-3.40
-4.02
-4.33
-4.24
-3.79
-3.05
-2.15
-1.17
-0.17
0.77
1.58
2.15
2.40
2.36
2.11
1.83
1.63
1.57
1.60
1.65
1.69
1.68
1.68
1.70
1.72
1.70
1.62
1.47
1.29
1.16
1.13
1.23
1.42
1.65
1.81
1.84
1.69
1.37
0.94
0.45
-0.07
-0.65
-1.35
-2.17
-3.06
-3.86
-4.43
-4.64
-4.52
-4.17
-3.73
-3.25
-2.68
-1.95
-1.03
0.02
1.02
1.80
2.22
2.30
2.12
1.83
1.56
1.36
1.23
1.15
1.06
0.92
0.75
0.58
0.51
0.57
0.79
1.10
1.41
1.63
1.71
1.68
1.57
1.43
1.30
1.18
1.06
0.95
0.81
0.58
0.20
-0.36
-1.10
-1.95
-2.79
-3.51
-3.98
-4.12
-3.89
-3.28
-2.37
-1.29
-0.17
0.85
1.74
2.50
3.12
3.56
3.76
3.62
3.14
2.42
1.63
0.94
0.43
0.06
-0.26
-0.58
-0.94
-1.31
-1.68
-2.04
-2.42
-2.76
-3.00
-3.08
-2.96
-2.71
-2.43
-2.21
-2.09
-2.07
-2.13
-2.27
-2.52
-2.87
-3.25
-3.54
-3.61
-3.40
-2.93
-2.31
-1.70
-1.16
-0.73
-0.32
0.19
0.89
1.77
2.69
3.48
3.98
4.13
4.01
3.76
3.52
3.35
3.23
3.07
2.83
2.54
2.24
2.02
1.89
1.78
1.62
1.34
0.96
0.56
0.21
-0.05
-0.25
-0.43
-0.66
-0.95
-1.32
-1.78
-2.32
-2.94
-3.57
-4.15
-4.59
-4.81
-4.79
-4.53
-4.06
-3.38
-2.53
-1.57
-0.57
0.35
1.10
1.64
1.95
2.06
2.01
1.83
1.58
1.36
1.22
1.21
1.31
1.44
1.54
1.58
1.56
1.56
1.60
1.69
1.80
1.88
1.90
1.87
1.81
1.77
1.70
1.57
1.28
0.80
0.12
-0.71
-1.60
-2.48
-3.28
-3.97
-4.47
-4.68
-4.52
-3.94
-3.00
-1.87
-0.76
0.18
0.87
1.36
1.73
2.01
2.17
2.15
1.93
1.63
1.38
1.34
1.55
1.88
2.17
2.28
2.19
2.04
1.97
2.06
2.25
2.40
2.36
2.10
1.70
1.30
1.01
0.86
0.81
0.76
0.66
0.49
0.27
-0.00
-0.32
-0.70
-1.14
-1.59
-2.04
-2.45
-2.83
-3.20
-3.58
-3.92
-4.13
-4.04
-3.57
-2.72
-1.58
-0.35
0.75
1.57
2.05
2.22
2.21
2.13
2.08
2.09
2.14
2.18
2.17
2.09
1.94
1.71
1.40
1.03
0.66
0.40
0.33
0.50
0.86
1.24
1.49
1.49
1.26
0.93
0.65
0.53
0.62
0.87
1.21
1.55
1.84
2.01
2.01
1.86
1.55
1.13
0.58
-0.11
-0.99
-2.08
-3.31
-4.54
-5.61
-6.34
-6.63
-6.48
-5.95
-5.16
-4.21
-3.18
-2.16
-1.18
-0.27
0.55
1.22
1.70
1.93
1.88
1.57
1.12
0.66
0.34
0.24
0.36
0.64
0.95
1.20
1.32
1.30
1.19
1.11
1.13
1.31
1.61
1.93
2.16
2.20
2.06
1.81
1.50
1.14
0.70
0.16
-0.45
-1.02
-1.43
-1.67
-1.83
-2.07
-2.51
-3.08
-3.60
-3.82
-3.62
-3.05
-2.30
-1.57
-0.95
-0.40
0.16
0.79
1.41
1.88
2.09
2.04
1.86
1.71
1.68
1.73
1.72
1.57
1.28
0.96
0.74
0.67
0.70
0.72
0.67
0.59
0.56
0.68
0.92
1.19
1.32
1.23
0.97
0.69
0.56
0.64
0.87
1.05
0.97
0.53
-0.25
-1.24
-2.29
-3.27
-4.13
-4.83
-5.33
-5.55
-5.39
-4.84
-3.97
-2.93
-1.89
-0.93
-0.06
0.77
1.58
2.30
2.83
3.06
2.94
2.55
2.02
1.51
1.11
0.87
0.74
0.70
0.71
0.79
0.96
1.23
1.54
1.78
1.87
1.76
1.50
1.18
0.90
0.72
0.64
0.60
0.55
0.49
0.43
0.39
0.30
0.06
-0.43
-1.19
-2.14
-3.14
-4.01
-4.60
-4.85
-4.77
-4.41
-3.83
-3.07
-2.20
-1.32
-0.49
0.20
0.75
1.14
1.40
1.52
1.50
1.40
1.25
1.15
1.13
1.18
1.22
1.18
1.02
0.79
0.59
0.53
0.65
0.93
1.31
1.72
2.07
2.28
2.29
2.07
1.62
1.06
0.52
0.08
-0.24
-0.51
-0.82
-1.26
-1.84
-2.52
-3.23
-3.90
-4.43
-4.73
-4.71
-4.31
-3.55
-2.57
-1.52
-0.56
0.23
0.87
1.40
1.85
2.19
2.36
2.32
2.08
1.71
1.34
1.05
0.89
0.84
0.85
0.88
0.90
0.90
0.88
0.86
0.88
0.97
1.16
1.41
1.67
1.83
1.84
1.67
1.36
0.98
0.61
0.26
-0.10
-0.52
-1.05
-1.70
-2.43
-3.15
-3.81
-4.33
-4.69
-4.86
-4.83
-4.57
-4.08
-3.34
-2.41
-1.36
-0.29
0.66
1.42
1.91
2.14
2.13
1.93
1.60
1.22
0.86
0.58
0.40
0.32
0.33
0.40
0.53
0.71
0.91
1.15
1.41
1.68
1.93
2.09
2.08
1.87
1.47
0.96
0.48
0.10
-0.15
-0.33
-0.61
-1.09
-1.84
-2.81
-3.82
-4.66
-5.14
-5.11
-4.54
-3.53
-2.24
-0.89
0.33
1.32
2.04
2.53
2.82
2.98
3.01
2.89
2.63
2.25
1.84
1.51
1.36
1.44
1.72
2.12
2.51
2.76
2.80
2.63
2.33
1.99
1.73
1.59
1.56
1.56
1.46
1.13
0.51
-0.37
-1.40
-2.45
-3.37
-4.09
-4.62
-5.00
-5.25
-5.36
-5.26
-4.87
-4.17
-3.21
-2.17
-1.19
-0.38
0.27
0.81
1.33
1.81
2.19
2.37
2.28
1.96
1.53
1.16
0.96
0.94
1.03
1.12
1.13
1.05
0.92
0.82
0.82
0.93
1.12
1.33
1.54
1.71
1.80
1.74
1.41
0.70
-0.41
-1.83
-3.32
-4.60
-5.48
-5.86
-5.76
-5.30
-4.61
-3.81
-2.98
-2.16
-1.36
-0.58
0.19
0.95
1.67
2.28
2.70
2.90
2.91
2.78
2.61
2.44
2.30
2.17
2.06
1.99
1.96
1.93
1.89
1.82
1.72
1.65
1.68
1.84
2.07
2.27
2.31
2.07
1.55
0.82
0.02
-0.75
-1.43
-2.06
-2.70
-3.36
-4.01
-4.48
-4.67
-4.48
-3.96
-3.23
-2.39
-1.55
-0.70
0.14
0.96
1.72
2.32
2.69
2.78
2.63
2.30
1.91
1.57
1.37
1.34
1.44
1.59
1.67
1.62
1.44
1.20
0.99
0.88
0.85
0.90
0.97
1.03
1.10
1.19
1.31
1.44
1.53
1.52
1.33
0.92
0.30
-0.49
-1.36
-2.22
-3.00
-3.66
-4.17
-4.51
-4.62
-4.47
-4.02
-3.33
-2.46
-1.52
-0.59
0.31
1.18
1.97
2.63
3.05
3.13
2.87
2.32
1.62
0.93
0.43
0.21
0.31
0.64
1.10
1.55
1.88
2.04
2.06
1.98
1.87
1.80
1.78
1.84
1.94
2.03
2.05
1.92
1.63
1.17
0.63
0.07
-0.44
-0.87
-1.26
-1.68
-2.19
-2.83
-3.54
-4.21
-4.68
-4.80
-4.50
-3.82
-2.88
-1.82
-0.82
0.04
0.73
1.26
1.65
1.90
2.00
1.94
1.77
1.55
1.34
1.25
1.28
1.42
1.57
1.63
1.54
1.30
1.01
0.76
0.64
0.66
0.75
0.84
0.87
0.85
0.80
0.76
0.73
0.68
0.61
0.54
0.48
0.42
0.29
-0.03
-0.64
-1.56
-2.67
-3.74
-4.56
-4.96
-4.92
-4.51
-3.84
-3.01
-2.11
-1.21
-0.39
0.25
0.65
0.80
0.77
0.68
0.68
0.87
1.24
1.67
2.01
2.12
1.95
1.54
1.03
0.59
0.34
0.36
0.60
0.94
1.23
1.36
1.31
1.12
0.87
0.65
0.53
0.52
0.61
0.75
0.88
0.96
0.95
0.83
0.65
0.43
0.19
-0.10
-0.52
-1.13
-1.91
-2.79
-3.60
-4.22
-4.57
-4.66
-4.49
-4.06
-3.37
-2.43
-1.34
-0.27
0.60
1.15
1.38
1.38
1.32
1.30
1.37
1.47
1.53
1.50
1.38
1.20
1.04
0.94
0.93
1.03
1.22
1.45
1.63
1.71
1.65
1.46
1.25
1.13
1.16
1.33
1.54
1.62
1.49
1.16
0.71
0.29
-0.02
-0.24
-0.44
-0.72
-1.13
-1.65
-2.19
-2.71
-3.19
-3.66
-4.15
-4.66
-5.06
-5.21
-4.97
-4.32
-3.39
-2.36
-1.40
-0.58
0.13
0.77
1.38
1.88
2.17
2.19
2.00
1.70
1.47
1.39
1.47
1.63
1.77
1.84
1.84
1.85
1.92
2.07
2.25
2.35
2.32
2.13
1.86
1.62
1.49
1.47
1.50
1.49
1.40
1.28
1.19
1.18
1.22
1.22
1.09
0.77
0.30
-0.30
-1.01
-1.85
-2.84
-3.94
-5.01
-5.86
-6.30
-6.23
-5.68
-4.76
-3.63
-2.42
-1.26
-0.21
0.67
1.35
1.78
1.98
2.00
1.89
1.77
1.72
1.74
1.80
1.79
1.61
1.22
0.70
0.21
-0.11
-0.15
0.08
0.48
0.94
1.36
1.69
1.90
1.96
1.83
1.54
1.13
0.74
0.47
0.37
0.35
0.26
-0.08
-0.79
-1.80
-2.98
-4.10
-4.92
-5.33
-5.27
-4.78
-3.95
-2.90
-1.78
-0.73
0.13
0.73
1.10
1.36
1.60
1.89
2.18
2.37
2.32
1.99
1.48
0.94
0.58
0.48
0.62
0.84
0.99
1.00
0.88
0.76
0.79
1.05
1.50
2.01
2.39
2.52
2.37
2.07
1.75
1.51
1.31
1.00
0.40
-0.58
-1.92
-3.40
-4.79
-5.86
-6.48
-6.62
-6.30
-5.60
-4.59
-3.37
-2.08
-0.84
0.22
1.02
1.55
1.83
1.98
2.09
2.26
2.50
2.77
2.97
2.97
2.72
2.25
1.64
1.04
0.59
0.37
0.40
0.68
1.12
1.63
2.07
2.30
2.22
1.82
1.24
0.66
0.33
0.35
0.68
1.10
1.32
1.13
0.47
-0.52
-1.55
-2.38
-2.87
-3.03
-3.02
-2.98
-3.01
-3.10
-3.20
-3.23
-3.16
-3.02
-2.82
-2.59
-2.31
-1.94
-1.46
-0.87
-0.24
0.40
0.99
1.55
2.08
2.59
3.07
3.48
3.78
3.95
3.98
3.89
3.67
3.34
2.92
2.46
2.03
1.71
1.55
1.54
1.63
1.73
1.77
1.72
1.59
1.41
1.18
0.89
0.48
-0.12
-0.92
-1.92
-3.02
-4.07
-4.92
-5.44
-5.51
-5.11
-4.26
-3.07
-1.71
-0.39
0.69
1.39
1.72
1.76
1.68
1.62
1.66
1.81
1.99
2.16
2.28
2.33
2.33
2.31
2.27
2.24
2.26
2.36
2.54
2.76
2.94
2.98
2.84
2.55
2.19
1.84
1.54
1.30
1.11
0.97
0.90
0.91
0.98
1.02
0.92
0.56
-0.09
-1.03
-2.16
-3.36
-4.49
-5.46
-6.17
-6.56
-6.59
-6.24
-5.54
-4.55
-3.38
-2.18
-1.07
-0.15
0.54
1.02
1.34
1.53
1.60
1.52
1.27
0.89
0.46
0.11
-0.07
-0.09
0.00
0.12
0.21
0.33
0.56
0.97
1.58
2.30
3.03
3.67
4.15
4.46
4.59
4.54
4.30
3.91
3.38
2.78
2.08
1.26
0.24
-1.00
-2.41
-3.83
-5.08
-6.00
-6.54
-6.69
-6.53
-6.08
-5.38
-4.45
-3.35
-2.18
-1.03
0.01
0.90
1.58
2.02
2.17
2.05
1.72
1.31
0.95
0.72
0.62
0.57
0.52
0.46
0.45
0.57
0.89
1.33
1.77
2.07
2.14
1.98
1.66
1.31
1.06
0.94
0.95
1.01
1.01
0.88
0.56
0.08
-0.55
-1.27
-2.02
-2.77
-3.47
-4.08
-4.57
-4.89
-5.03
-4.96
-4.64
-4.02
-3.07
-1.83
-0.44
0.87
1.91
2.55
2.82
2.80
2.61
2.35
2.04
1.70
1.36
1.08
0.91
0.87
0.92
0.99
1.01
0.94
0.79
0.61
0.42
0.27
0.18
0.18
0.28
0.47
0.71
0.89
0.94
0.81
0.50
0.07
-0.41
-0.89
-1.31
-1.69
-2.05
-2.44
-2.90
-3.46
-4.07
-4.61
-4.94
-4.91
-4.50
-3.76
-2.83
-1.85
-0.95
-0.14
0.60
1.29
1.91
2.36
2.51
2.29
1.73
0.98
0.25
-0.25
-0.44
-0.35
-0.14
0.03
0.08
0.03
0.02
0.16
0.48
0.91
1.28
1.45
1.38
1.17
0.95
0.87
0.96
1.18
1.42
1.57
1.56
1.35
0.96
0.37
-0.39
-1.31
-2.31
-3.30
-4.16
-4.80
-5.12
-5.10
-4.74
-4.06
-3.16
-2.15
-1.15
-0.27
0.43
0.90
1.19
1.35
1.41
1.43
1.41
1.35
1.23
1.07
0.90
0.78
0.75
0.86
1.08
1.35
1.59
1.76
1.84
1.86
1.83
1.77
1.65
1.44
1.17
0.91
0.72
0.68
0.75
0.81
0.71
0.31
-0.41
-1.36
-2.39
-3.36
-4.18
-4.84
-5.34
-5.62
-5.57
-5.06
-4.07
-2.68
-1.13
0.33
1.47
2.21
2.61
2.81
2.91
2.97
3.00
2.95
2.80
2.55
2.25
1.93
1.66
1.51
1.51
1.66
1.90
2.12
2.23
2.18
1.99
1.74
1.55
1.47
1.49
1.54
1.53
1.38
1.07
0.59
-0.05
-0.86
-1.83
-2.92
-4.03
-5.05
-5.83
-6.25
-6.24
-5.76
-4.85
-3.60
-2.15
-0.69
0.61
1.65
2.40
2.94
3.35
3.68
3.88
3.89
3.64
3.17
2.62
2.16
1.93
1.95
2.13
2.32
2.40
2.34
2.17
1.97
1.77
1.55
1.26
0.92
0.55
0.28
0.16
0.18
0.23
0.16
-0.11
-0.60
-1.17
-1.70
-2.11
-2.47
-2.90
-3.48
-4.19
-4.86
-5.24
-5.12
-4.46
-3.40
-2.19
-1.08
-0.20
0.44
0.97
1.48
2.02
2.52
2.84
2.90
2.67
2.22
1.68
1.18
0.83
0.68
0.72
0.89
1.09
1.25
1.32
1.37
1.49
1.77
2.20
2.64
2.90
2.86
2.52
2.06
1.69
1.55
1.63
1.77
1.77
1.53
1.07
0.49
-0.13
-0.80
-1.57
-2.48
-3.51
-4.49
-5.24
-5.59
-5.51
-5.08
-4.40
-3.59
-2.71
-1.80
-0.87
0.07
0.97
1.80
2.48
2.97
3.21
3.17
2.89
2.48
2.05
1.68
1.44
1.33
1.32
1.37
1.46
1.58
1.70
1.80
1.89
1.94
1.98
2.00
2.02
2.03
2.00
1.88
1.65
1.30
0.87
0.45
0.14
-0.02
-0.09
-0.18
-0.43
-0.94
-1.71
-2.63
-3.52
-4.20
-4.55
-4.51
-4.09
-3.37
-2.41
-1.28
-0.07
1.11
2.14
2.87
3.21
3.18
2.86
2.42
2.00
1.67
1.43
1.29
1.26
1.35
1.53
1.71
1.77
1.60
1.22
0.75
0.35
0.11
-0.00
-0.12
-0.34
-0.68
-1.03
-1.23
-1.19
-0.95
-0.65
-0.50
-0.62
-1.07
-1.78
-2.65
-3.52
-4.26
-4.78
-5.01
-4.93
-4.60
-4.06
-3.41
-2.69
-1.95
-1.20
