-0	-0	-0	-0	-0	-0	-0	-0	-0	-0	0	0.01	0.01	-0	-0.03	-0.05	-0.05	0	0.13	0.36	0.66	1.01	1.37	1.72	2.06	2.4	2.79	3.24	3.8	4.42	5.06	5.66	6.2	6.68	7.15	7.68	8.31	9.14	10.09	11.04	11.88	12.56	13.14	13.76	14.65	15.96	17.91	20.32	22.9	25.38	27.58	29.57	31.68	34.32	37.81	42.54	48.15	54.1	59.83	64.97	69.58	74.14	79.34	85.71	93.76	103	112.62	121.73	129.77	136.75	143.3	150.75	157.77	166.64	177.95	191.79	206.97	220.57	228.25	225.36	208.53	176.87	132.76	80.05	23.07	-34.94	-92.44	-149.16	-205.23	-260.37	-313.74	-363.87	-409.83	-450.91	-486.5	-515.74	-537.23	-549.22	-549.96	-538.37	-514.21	-478.67	-433.88	-382.45	-327.02	-269.84	-212.63	-156.66	-102.95	-52.37	-5.9	35.58	71.43	101.35	125.5	144.38	158.69	169.15	176.37	180.75	182.57	182.07	179.51	175.23	169.65	163.18	156.15	148.81
93.76	103	112.62	121.73	129.77	136.75	143.3	150.75	157.77	166.64	177.95	191.79	206.97	220.57	228.25	225.36	208.53	176.87	132.76	80.05	23.07	-34.94	-92.44	-149.16	-205.23	-260.37	-313.74	-363.87	-409.83	-450.91	-486.5	-515.74	-537.23	-549.22	-549.96	-538.37	-514.21	-478.67	-433.88	-382.45	-327.02	-269.84	-212.63	-156.66	-102.95	-52.37	-5.9	35.58	71.43	101.35	125.5	144.38	158.69	169.15	176.37	180.75	182.57	182.07	179.51	175.23	169.65	163.18	156.15	148.81	141.3	133.69	126.02	118.33	110.69	103.16	95.8	88.68	81.83	75.25	68.95	62.95	57.25	51.86	46.78	42.03	37.59	33.45	29.61	26.07	22.81	19.83	17.11	14.67	12.48	10.54	8.83	7.35	6.07	4.97	4.05	3.27	2.62	2.09	1.65	1.3	1.01	0.79	0.61	0.48	0.37	0.28	0.22	0.18	0.14	0.11	0.09	0.08	0.07	0.07	0.07	0.08	0.09	0.1	0.12	0.15	0.18	0.21	0.24	0.28	0.33	0.37	0.42	0.47
141.3	133.69	126.02	118.33	110.69	103.16	95.8	88.68	81.83	75.25	68.95	62.95	57.25	51.86	46.78	42.03	37.59	33.45	29.61	26.07	22.81	19.83	17.11	14.67	12.48	10.54	8.83	7.35	6.07	4.97	4.05	3.27	2.62	2.09	1.65	1.3	1.01	0.79	0.61	0.48	0.37	0.28	0.22	0.18	0.14	0.11	0.09	0.08	0.07	0.07	0.07	0.08	0.09	0.1	0.12	0.15	0.18	0.21	0.24	0.28	0.33	0.37	0.42	0.47	0.52	0.57	0.63	0.69	0.75	0.82	0.9	0.98	1.07	1.17	1.29	1.41	1.55	1.71	1.89	2.09	2.31	2.55	2.82	3.12	3.44	3.8	4.19	4.6	5.06	5.55	6.08	6.64	7.25	7.9	8.6	9.37	10.21	11.1	12.03	12.93	13.82	14.68	15.58	16.56	17.71	19.02	20.45	21.91	23.24	24.33	25.07	25.41	25.35	24.88	23.97	22.53	20.47	17.69	14.14	9.95	5.39	0.81	-3.4	-7.02	-10.03	-12.61	-15.09	-17.7
0.52	0.57	0.63	0.69	0.75	0.82	0.9	0.98	1.07	1.17	1.29	1.41	1.55	1.71	1.89	2.09	2.31	2.55	2.82	3.12	3.44	3.8	4.19	4.6	5.06	5.55	6.08	6.64	7.25	7.9	8.6	9.37	10.21	11.1	12.03	12.93	13.82	14.68	15.58	16.56	17.71	19.02	20.45	21.91	23.24	24.33	25.07	25.41	25.35	24.88	23.97	22.53	20.47	17.69	14.14	9.95	5.39	0.81	-3.4	-7.02	-10.03	-12.61	-15.09	-17.7	-20.46	-23.12	-25.21	-26.26	-26.14	-25.12	-23.94	-23.52	-24.54	-27.16	-30.85	-34.67	-37.61	-39.15	-39.59	-39.93	-41.45	-45.04	-50.67	-57.26	-63.12	-66.64	-66.96	-64.41	-60.29	-56.35	-54.22	-55.11	-59.62	-67.4	-76.51	-83.11	-82.07	-68.8	-41.76	-4.06	36.9	72.01	94.22	101.42	96.69	86.15	75.54	67.58	61.71	55.56	47.11	36.09	23.85	12.19	2.28	-5.62	-11.73	-16.07	-17.65	-15.4	-9.16	-0.4	8	12.76	11.4	3.21	-10.63	-27.59
-20.46	-23.12	-25.21	-26.26	-26.14	-25.12	-23.94	-23.52	-24.54	-27.16	-30.85	-34.67	-37.61	-39.15	-39.59	-39.93	-41.45	-45.04	-50.67	-57.26	-63.12	-66.64	-66.96	-64.41	-60.29	-56.35	-54.22	-55.11	-59.62	-67.4	-76.51	-83.11	-82.07	-68.8	-41.76	-4.06	36.9	72.01	94.22	101.42	96.69	86.15	75.54	67.58	61.71	55.56	47.11	36.09	23.85	12.19	2.28	-5.62	-11.73	-16.07	-17.65	-15.4	-9.16	-0.4	8	12.76	11.4	3.21	-10.63	-27.59	-44.93	-60.68	-73.86	-84.13	-91.16	-94.06	-91.67	-83.14	-68.57	-49.27	-27.18	-4.05	19.41	43.37	68.09	92.65	114.63	130.96	139.33	139.42	133.3	124.74	117.69	114.75	116.12	120.18	124.84	128.62	130.95	131.73	130.81	127.47	120.58	108.63	90.99	68.95	45.54	24.22	7.41	-4.1	-11.08	-15.21	-19.13	-25.41	-35.34	-48.72	-64.3	-80.42	-95.14	-106.48	-107.94	-94.78	-67.85	-33.3	1.91	33.63	60.6	83.01	101.45	116.44	127.8	135.03	138.67	140.27
-44.93	-60.68	-73.86	-84.13	-91.16	-94.06	-91.67	-83.14	-68.57	-49.27	-27.18	-4.05	19.41	43.37	68.09	92.65	114.63	130.96	139.33	139.42	133.3	124.74	117.69	114.75	116.12	120.18	124.84	128.62	130.95	131.73	130.81	127.47	120.58	108.63	90.99	68.95	45.54	24.22	7.41	-4.1	-11.08	-15.21	-19.13	-25.41	-35.34	-48.72	-64.3	-80.42	-95.14	-106.48	-107.94	-94.78	-67.85	-33.3	1.91	33.63	60.6	83.01	101.45	116.44	127.8	135.03	138.67	140.27	141.65	143.71	146.79	150.8	155.6	160.62	164.76	167.69	169.71	171.12	171.59	170.16	165.2	154.41	139.59	121.18	100.02	77.36	54.47	32.19	11.03	-8.7	-26.56	-42.06	-55.2	-65.75	-73.49	-78.56	-81.68	-83.98	-86.71	-90.87	-97.04	-105.73	-116.78	-129.63	-143.61	-158.36	-174.23	-192.51	-215.06	-243.3	-277.17	-313.73	-347.01	-369.48	-374.57	-359.15	-324.9	-277.8	-225.96	-177.29	-137.64	-110.42	-97.22	-98.35	-112.72	-137.2	-166.46	-194.03	-214.22	-224.14	-224.22	-217.1
141.65	143.71	146.79	150.8	155.6	160.62	164.76	167.69	169.71	171.12	171.59	170.16	165.2	154.41	139.59	121.18	100.02	77.36	54.47	32.19	11.03	-8.7	-26.56	-42.06	-55.2	-65.75	-73.49	-78.56	-81.68	-83.98	-86.71	-90.87	-97.04	-105.73	-116.78	-129.63	-143.61	-158.36	-174.23	-192.51	-215.06	-243.3	-277.17	-313.73	-347.01	-369.48	-374.57	-359.15	-324.9	-277.8	-225.96	-177.29	-137.64	-110.42	-97.22	-98.35	-112.72	-137.2	-166.46	-194.03	-214.22	-224.14	-224.22	-217.1	-205.53	-190.59	-171.73	-148.34	-121.58	-95.02	-73.38	-60.3	-56.51	-59.67	-65.88	-72.02	-77.11	-82.32	-89.62	-100.21	-113.33	-126.21	-135	-136.02	-127.2	-109.01	-84.66	-59.21	-38.1	-25.05	-20.79	-23.14	-28.05	-31.48	-30.78	-25.05	-14.43	0.77	20.53	44.87	73.08	103.46	133.4	160.19	181.9	197.87	208.84	216.78	224.48	234.89	250.31	271.25	295.87	320.35	340.51	353.61	359.78	361.7	362.97	366.09	371.41	377.48	382.4	385	385.03	382.55	377.05	367.25
-205.53	-190.59	-171.73	-148.34	-121.58	-95.02	-73.38	-60.3	-56.51	-59.67	-65.88	-72.02	-77.11	-82.32	-89.62	-100.21	-113.33	-126.21	-135	-136.02	-127.2	-109.01	-84.66	-59.21	-38.1	-25.05	-20.79	-23.14	-28.05	-31.48	-30.78	-25.05	-14.43	0.77	20.53	44.87	73.08	103.46	133.4	160.19	181.9	197.87	208.84	216.78	224.48	234.89	250.31	271.25	295.87	320.35	340.51	353.61	359.78	361.7	362.97	366.09	371.41	377.48	382.4	385	385.03	382.55	377.05	367.25	351.76	330.05	302.98	272.37	240.21	207.71	175.04	141.6	106.65	69.58	29.98	-12.55	-58.48	-108.56	-163.7	-224.69	-291.42	-361.88	-431.36	-492.83	-538.49	-562.26	-561.85	-539.42	-500.4	-451.16	-396.92	-340.95	-285.03	-230.59	-179.25	-132.38	-90.16	-51.1	-12.6	27.59	69.93	112.75	153.12	188.34	217.23	240.53	260.13	278.02	295.32	311.98	326.91	338.52	345.24	345.92	340.27	329.1	314.23	297.94	282.03	266.81	250.56	230.07	201.68	162.84	113.04	54.31	-9.21	-72.08
351.76	330.05	302.98	272.37	240.21	207.71	175.04	141.6	106.65	69.58	29.98	-12.55	-58.48	-108.56	-163.7	-224.69	-291.42	-361.88	-431.36	-492.83	-538.49	-562.26	-561.85	-539.42	-500.4	-451.16	-396.92	-340.95	-285.03	-230.59	-179.25	-132.38	-90.16	-51.1	-12.6	27.59	69.93	112.75	153.12	188.34	217.23	240.53	260.13	278.02	295.32	311.98	326.91	338.52	345.24	345.92	340.27	329.1	314.23	297.94	282.03	266.81	250.56	230.07	201.68	162.84	113.04	54.31	-9.21	-72.08	-128.64	-174.02	-205.08	-221.04	-223.45	-215.53	-201.08	-183.29	-164.09	-144.25	-124.2	-104.82	-87.8	-74.94	-67.02	-62.63	-58.06	-48.4	-29.52	-0.05	37.75	78.76	116.91	147.5	168.61	181.17	187.81	191.27	193.24	194.13	193.58	191.37	187.86	184.03	180.96	179.26	178.69	178.36	176.98	173.32	166.28	154.75	137.34	112.33	77.88	32.72	-23.27	-88.76	-160.88	-235.8	-309.4	-377.66	-436.78	-483.1	-513.23	-524.76	-517.4	-493.72	-459.11	-420.31	-383.21	-350.73	-322.17	-294.14
-128.64	-174.02	-205.08	-221.04	-223.45	-215.53	-201.08	-183.29	-164.09	-144.25	-124.2	-104.82	-87.8	-74.94	-67.02	-62.63	-58.06	-48.4	-29.52	-0.05	37.75	78.76	116.91	147.5	168.61	181.17	187.81	191.27	193.24	194.13	193.58	191.37	187.86	184.03	180.96	179.26	178.69	178.36	176.98	173.32	166.28	154.75	137.34	112.33	77.88	32.72	-23.27	-88.76	-160.88	-235.8	-309.4	-377.66	-436.78	-483.1	-513.23	-524.76	-517.4	-493.72	-459.11	-420.31	-383.21	-350.73	-322.17	-294.14	-262.85	-226.38	-185.75	-144.48	-106.93	-76.67	-55.57	-43.82	-40.5	-44.23	-53.32	-65.79	-79.41	-91.83	-101.14	-106.58	-108.78	-109.83	-112.54	-119.3	-130.89	-145.89	-160.86	-171.63	-174.73	-168.52	-153.47	-131.58	-105.39	-77.18	-48.6	-20.75	5.58	29.89	52.11	72.74	92.71	113.08	134.48	156.78	179.13	199.95	217.26	228.89	232.81	227.75	213.89	193.16	168.92	144.78	123.24	104.55	86.91	67.62	44.77	18.48	-9.02	-34.49	-55.23	-70.3	-80.48	-87.41	-92.35	-95.47
-262.85	-226.38	-185.75	-144.48	-106.93	-76.67	-55.57	-43.82	-40.5	-44.23	-53.32	-65.79	-79.41	-91.83	-101.14	-106.58	-108.78	-109.83	-112.54	-119.3	-130.89	-145.89	-160.86	-171.63	-174.73	-168.52	-153.47	-131.58	-105.39	-77.18	-48.6	-20.75	5.58	29.89	52.11	72.74	92.71	113.08	134.48	156.78	179.13	199.95	217.26	228.89	232.81	227.75	213.89	193.16	168.92	144.78	123.24	104.55	86.91	67.62	44.77	18.48	-9.02	-34.49	-55.23	-70.3	-80.48	-87.41	-92.35	-95.47	-96	-92.99	-86.1	-75.98	-63.97	-51.52	-39.68	-29.05	-19.78	-11.87	-5.14	0.92	7.17	14.56	23.62	33.96	44.04	51.69	54.83	52.3	44.32	32.29	18.17	3.73	-9.79	-21.69	-31.5	-38.7	-42.71	-43.07	-39.9	-34.16	-27.44	-21.52	-17.55	-15.58	-14.57	-12.96	-9.43	-3.57	4.02	12.13	19.57	25.75	30.79	35.29	39.76	44.22	48.07	50.27	49.86	46.37	40.12	32.23	24.36	18.28	15.33	16.06	20.02	26.02	32.59	38.57	43.33	46.84
-96	-92.99	-86.1	-75.98	-63.97	-51.52	-39.68	-29.05	-19.78	-11.87	-5.14	0.92	7.17	14.56	23.62	33.96	44.04	51.69	54.83	52.3	44.32	32.29	18.17	3.73	-9.79	-21.69	-31.5	-38.7	-42.71	-43.07	-39.9	-34.16	-27.44	-21.52	-17.55	-15.58	-14.57	-12.96	-9.43	-3.57	4.02	12.13	19.57	25.75	30.79	35.29	39.76	44.22	48.07	50.27	49.86	46.37	40.12	32.23	24.36	18.28	15.33	16.06	20.02	26.02	32.59	38.57	43.33	46.84	49.31	50.91	51.56	50.99	48.94	45.42	40.91	36.31	32.85	31.76	33.99	40	49.63	62.2	76.72	92.19	107.81	122.9	136.73	148.29	156.4	159.95	158.42	152.16	142.39	130.83	119.07	108.04	97.76	87.59	76.67	64.56	51.5	38.38	26.27	15.94	7.64	1.04	-4.38	-8.95	-12.69	-15.33	-16.71	-17.04	-17.05	-17.72	-20.04	-24.59	-31.34	-39.75	-48.72	-56.79	-62.24	-63.46	-59.35	-49.86	-36.24	-20.84	-6.39	4.87	11.83	14.65	14.33	12.03
49.31	50.91	51.56	50.99	48.94	45.42	40.91	36.31	32.85	31.76	33.99	40	49.63	62.2	76.72	92.19	107.81	122.9	136.73	148.29	156.4	159.95	158.42	152.16	142.39	130.83	119.07	108.04	97.76	87.59	76.67	64.56	51.5	38.38	26.27	15.94	7.64	1.04	-4.38	-8.95	-12.69	-15.33	-16.71	-17.04	-17.05	-17.72	-20.04	-24.59	-31.34	-39.75	-48.72	-56.79	-62.24	-63.46	-59.35	-49.86	-36.24	-20.84	-6.39	4.87	11.83	14.65	14.33	12.03	8.58	4.35	-0.54	-5.77	-10.66	-14.24	-15.64	-14.4	-10.71	-5.34	0.58	5.97	10.12	12.8	14.29	15.03	15.47	15.68	15.47	14.46	12.29	8.92	4.59	-0.12	-4.65	-8.54	-11.67	-14.29	-16.85	-19.91	-23.9	-28.91	-34.66	-40.47	-45.19	-47.52	-46.12	-40.15	-29.61	-15.57	-0.03	14.56	26.01	33.08	35.67	34.62	31.28	26.86	22.18	17.59	13.2	9.14	5.57	2.79	1	0.22	0.27	0.73	1.21	1.36	1.05	0.34	-0.57	-1.5
8.58	4.35	-0.54	-5.77	-10.66	-14.24	-15.64	-14.4	-10.71	-5.34	0.58	5.97	10.12	12.8	14.29	15.03	15.47	15.68	15.47	14.46	12.29	8.92	4.59	-0.12	-4.65	-8.54	-11.67	-14.29	-16.85	-19.91	-23.9	-28.91	-34.66	-40.47	-45.19	-47.52	-46.12	-40.15	-29.61	-15.57	-0.03	14.56	26.01	33.08	35.67	34.62	31.28	26.86	22.18	17.59	13.2	9.14	5.57	2.79	1	0.22	0.27	0.73	1.21	1.36	1.05	0.34	-0.57	-1.5	-2.35	-3.24	-4.39	-6.03	-8.24	-10.86	-13.62	-16.18	-18.31	-19.96	-21.2	-22.16	-22.99	-23.81	-24.78	-26.15	-28.17	-31	-34.44	-37.77	-39.85	-39.3	-35.01	-26.51	-14.33	0.06	14.56	27.04	35.91	40.52	41.15	38.72	34.33	28.89	23.03	17.13	11.55	6.79	3.31	1.43	1.08	1.85	3.13	4.4	5.36	6.02	6.47	6.83	7.02	6.79	5.85	3.95	0.98	-2.97	-7.66	-12.65	-17.49	-21.81	-25.39	-28.27	-30.63	-32.7	-34.63	-36.44
-2.35	-3.24	-4.39	-6.03	-8.24	-10.86	-13.62	-16.18	-18.31	-19.96	-21.2	-22.16	-22.99	-23.81	-24.78	-26.15	-28.17	-31	-34.44	-37.77	-39.85	-39.3	-35.01	-26.51	-14.33	0.06	14.56	27.04	35.91	40.52	41.15	38.72	34.33	28.89	23.03	17.13	11.55	6.79	3.31	1.43	1.08	1.85	3.13	4.4	5.36	6.02	6.47	6.83	7.02	6.79	5.85	3.95	0.98	-2.97	-7.66	-12.65	-17.49	-21.81	-25.39	-28.27	-30.63	-32.7	-34.63	-36.44	-38.11	-39.65	-41.02	-42.13	-42.62	-41.9	-39.23	-34.04	-26.22	-16.25	-5.18	5.76	15.49	23.32	29.05	32.74	34.59	34.75	33.37	30.67	27.12	23.41	20.3	18.43	18.04	18.93	20.53	22.08	22.96	22.86	21.92	20.6	19.48	19.06	19.52	20.66	21.93	22.55	21.88	19.53	15.59	10.6	5.4	0.94	-2.04	-3.21	-2.69	-1.12	0.59	1.42	0.51	-2.5	-7.33	-13.16	-18.72	-22.72	-24.17	-22.66	-18.42	-12.23	-5.26	1.24	6.15	8.66
-38.11	-39.65	-41.02	-42.13	-42.62	-41.9	-39.23	-34.04	-26.22	-16.25	-5.18	5.76	15.49	23.32	29.05	32.74	34.59	34.75	33.37	30.67	27.12	23.41	20.3	18.43	18.04	18.93	20.53	22.08	22.96	22.86	21.92	20.6	19.48	19.06	19.52	20.66	21.93	22.55	21.88	19.53	15.59	10.6	5.4	0.94	-2.04	-3.21	-2.69	-1.12	0.59	1.42	0.51	-2.5	-7.33	-13.16	-18.72	-22.72	-24.17	-22.66	-18.42	-12.23	-5.26	1.24	6.15	8.66	8.39	5.43	0.36	-5.84	-12.06	-17.19	-20.49	-21.63	-20.83	-18.69	-15.95	-13.28	-10.96	-8.87	-6.61	-3.77	-0.25	3.66	7.36	10.31	12.33	13.81	15.54	18.34	22.54	27.82	33.17	37.23	38.71	36.75	31.08	22.13	10.95	-0.98	-11.93	-20.38	-25.3	-26.47	-24.32	-19.74	-13.63	-6.73	0.46	7.45	13.73	18.69	21.87	23.13	22.75	21.18	19.02	16.68	14.54	12.93	12.29	13.05	15.52	19.73	25.35	31.88	38.62	44.9	50.04	53.37
8.39	5.43	0.36	-5.84	-12.06	-17.19	-20.49	-21.63	-20.83	-18.69	-15.95	-13.28	-10.96	-8.87	-6.61	-3.77	-0.25	3.66	7.36	10.31	12.33	13.81	15.54	18.34	22.54	27.82	33.17	37.23	38.71	36.75	31.08	22.13	10.95	-0.98	-11.93	-20.38	-25.3	-26.47	-24.32	-19.74	-13.63	-6.73	0.46	7.45	13.73	18.69	21.87	23.13	22.75	21.18	19.02	16.68	14.54	12.93	12.29	13.05	15.52	19.73	25.35	31.88	38.62	44.9	50.04	53.37	54.34	52.59	48.16	41.42	33.03	23.91	15.06	7.5	1.98	-1.21	-2.43	-2.54	-2.58	-3.35	-4.98	-7.05	-8.89	-10.06	-10.67	-11.22	-12.31	-14.16	-16.52	-18.85	-20.66	-21.81	-22.52	-23.2	-24.23	-25.76	-27.66	-29.65	-31.39	-32.66	-33.38	-33.62	-33.58	-33.48	-33.48	-33.61	-33.82	-33.98	-34.04	-33.98	-33.85	-33.67	-33.32	-32.67	-31.61	-30.21	-28.74	-27.51	-26.79	-26.58	-26.63	-26.56	-25.94	-24.51	-22.14	-18.91	-15.03	-10.77	-6.5	-2.62
54.34	52.59	48.16	41.42	33.03	23.91	15.06	7.5	1.98	-1.21	-2.43	-2.54	-2.58	-3.35	-4.98	-7.05	-8.89	-10.06	-10.67	-11.22	-12.31	-14.16	-16.52	-18.85	-20.66	-21.81	-22.52	-23.2	-24.23	-25.76	-27.66	-29.65	-31.39	-32.66	-33.38	-33.62	-33.58	-33.48	-33.48	-33.61	-33.82	-33.98	-34.04	-33.98	-33.85	-33.67	-33.32	-32.67	-31.61	-30.21	-28.74	-27.51	-26.79	-26.58	-26.63	-26.56	-25.94	-24.51	-22.14	-18.91	-15.03	-10.77	-6.5	-2.62	0.44	2.36	2.97	2.34	0.75	-1.43	-3.87	-6.33	-8.67	-10.84	-12.77	-14.32	-15.35	-15.68	-15.24	-14.04	-12.25	-10.17	-8.24	-6.92	-6.51	-7.09	-8.35	-9.86	-11.12	-11.85	-12.06	-11.99	-11.97	-12.29	-13.09	-14.34	-15.82	-17.13	-17.78	-17.24	-15.19	-11.64	-6.96	-1.91	2.72	6.23	8.22	8.66	7.75	5.83	3.26	0.41	-2.34	-4.66	-6.23	-6.84	-6.48	-5.33	-3.72	-2.02	-0.61	0.2	0.2	-0.91	-3.19	-6.4	-10.06	-13.69
0.44	2.36	2.97	2.34	0.75	-1.43	-3.87	-6.33	-8.67	-10.84	-12.77	-14.32	-15.35	-15.68	-15.24	-14.04	-12.25	-10.17	-8.24	-6.92	-6.51	-7.09	-8.35	-9.86	-11.12	-11.85	-12.06	-11.99	-11.97	-12.29	-13.09	-14.34	-15.82	-17.13	-17.78	-17.24	-15.19	-11.64	-6.96	-1.91	2.72	6.23	8.22	8.66	7.75	5.83	3.26	0.41	-2.34	-4.66	-6.23	-6.84	-6.48	-5.33	-3.72	-2.02	-0.61	0.2	0.2	-0.91	-3.19	-6.4	-10.06	-13.69	-17.01	-19.97	-22.76	-25.66	-29.09	-33.18	-37.74	-42.41	-46.87	-50.94	-54.5	-57.38	-59.32	-60.42	-60.77	-60.29	-59.08	-57.68	-57.03	-58.11	-61.61	-67.54	-76.24	-86.9	-97.48	-105.57	-109.63	-109.15	-104.11	-94.49	-79.85	-61.43	-39.19	-11.27	24.38	67.49	114.86	161.41	201.96	232.56	247.85	246.02	229.88	204.71	175.04	143.51	111.31	78.25	42.55	-3.06	-63.23	-135.61	-211.47	-280.29	-333.47	-366.7	-380.84	-353.69	-283.73	-193.42	-111.85	-53.08	-15.59	7.28
-17.01	-19.97	-22.76	-25.66	-29.09	-33.18	-37.74	-42.41	-46.87	-50.94	-54.5	-57.38	-59.32	-60.42	-60.77	-60.29	-59.08	-57.68	-57.03	-58.11	-61.61	-67.54	-76.24	-86.9	-97.48	-105.57	-109.63	-109.15	-104.11	-94.49	-79.85	-61.43	-39.19	-11.27	24.38	67.49	114.86	161.41	201.96	232.56	247.85	246.02	229.88	204.71	175.04	143.51	111.31	78.25	42.55	-3.06	-63.23	-135.61	-211.47	-280.29	-333.47	-366.7	-380.84	-353.69	-283.73	-193.42	-111.85	-53.08	-15.59	7.28	20.74	27.38	28.97	22.99	9.68	-6.46	-19.94	-27.44	-29.84	-30.01	-30.8	-33.4	-40.99	-53.98	-69.17	-81.98	-89.71	-92.27	-90.59	-87.71	-84.96	-84.67	-87.29	-90.92	-92.72	-91.04	-86.03	-78.86	-70.87	-62.7	-55.61	-49.93	-44.72	-38.52	-30.43	-20.52	-9.51	1.62	12.33	21.92	30.33	38.25	46.73	56.63	68.21	81.14	94.74	108.45	121.88	135.08	148.37	162.26	177.29	193.9	212.56	233.51	256.52	280.32	302.38	319.3	327.77	325.7	313.02	291.66
20.74	27.38	28.97	22.99	9.68	-6.46	-19.94	-27.44	-29.84	-30.01	-30.8	-33.4	-40.99	-53.98	-69.17	-81.98	-89.71	-92.27	-90.59	-87.71	-84.96	-84.67	-87.29	-90.92	-92.72	-91.04	-86.03	-78.86	-70.87	-62.7	-55.61	-49.93	-44.72	-38.52	-30.43	-20.52	-9.51	1.62	12.33	21.92	30.33	38.25	46.73	56.63	68.21	81.14	94.74	108.45	121.88	135.08	148.37	162.26	177.29	193.9	212.56	233.51	256.52	280.32	302.38	319.3	327.77	325.7	313.02	291.66	264.9	236.33	209.22	186.15	169.05	159.14	156.79	161.1	169.97	180.53	190.04	196.78	200.45	202.22	204.2	208.85	218.03	232.2	249.75	266.92	278.68	280.26	268.86	244.74	211.03	172.5	133.88	98.55	68.14	42.99	22.76	6.86	-5.49	-15.42	-24.28	-33.3	-43.03	-53.26	-63.31	-72.59	-81.27	-90.35	-101.42	-116.04	-135.44	-160.4	-191.03	-226.57	-264.86	-302.25	-334.29	-357.22	-369.78	-373.87	-373.4	-371.43	-367.76	-358.53	-338.7	-305.81	-262.72	-217.21	-178.78	-154.26
264.9	236.33	209.22	186.15	169.05	159.14	156.79	161.1	169.97	180.53	190.04	196.78	200.45	202.22	204.2	208.85	218.03	232.2	249.75	266.92	278.68	280.26	268.86	244.74	211.03	172.5	133.88	98.55	68.14	42.99	22.76	6.86	-5.49	-15.42	-24.28	-33.3	-43.03	-53.26	-63.31	-72.59	-81.27	-90.35	-101.42	-116.04	-135.44	-160.4	-191.03	-226.57	-264.86	-302.25	-334.29	-357.22	-369.78	-373.87	-373.4	-371.43	-367.76	-358.53	-338.7	-305.81	-262.72	-217.21	-178.78	-154.26	-145.01	-147.22	-154.49	-160.86	-162.36	-156.63	-141.65	-114.79	-73.39	-16.15	55.49	137.1	222.03	302.74	372.11	424.27	455.06	462.26	445.72	407.44	351.66	284.49	213.36	145.89	88.56	45.75	18.83	6.43	5.13	10.65	18.83	26.26	30.78	31.46	28.5	22.91	15.98	8.86	2.39	-2.77	-5.92	-6.31	-3.61	1.43	6.8	9.62	7.34	-0.91	-13.77	-28.08	-40.13	-47.35	-49.17	-46.94	-43.09	-39.75	-38	-37.62	-37.47	-36.14	-32.46	-25.99	-17.49	-9.73
-145.01	-147.22	-154.49	-160.86	-162.36	-156.63	-141.65	-114.79	-73.39	-16.15	55.49	137.1	222.03	302.74	372.11	424.27	455.06	462.26	445.72	407.44	351.66	284.49	213.36	145.89	88.56	45.75	18.83	6.43	5.13	10.65	18.83	26.26	30.78	31.46	28.5	22.91	15.98	8.86	2.39	-2.77	-5.92	-6.31	-3.61	1.43	6.8	9.62	7.34	-0.91	-13.77	-28.08	-40.13	-47.35	-49.17	-46.94	-43.09	-39.75	-38	-37.62	-37.47	-36.14	-32.46	-25.99	-17.49	-9.73	-7.67	-17.77	-45.87	-94.17	-158.84	-229.92	-293.97	-338.68	-357.14	-349.56	-321.68	-281.17	-234.2	-184.17	-132.91	-82.82	-38	-3.58	16.61	22.01	15.65	2.72	-11.83	-25.21	-36.97	-47.99	-58.47	-66.7	-69.2	-62.14	-43.54	-14.75	19.34	51.69	75.27	85.34	80.66	63.63	39.12	12.99	-9.43	-24.38	-30.09	-26.8	-16.39	-1.79	13.72	27.24	36.81	41.65	42.07	39.14	34.33	29.26	25.4	23.91	25.39	29.8	36.37	43.91	51.23	57.6	63.02	68.02
-7.67	-17.77	-45.87	-94.17	-158.84	-229.92	-293.97	-338.68	-357.14	-349.56	-321.68	-281.17	-234.2	-184.17	-132.91	-82.82	-38	-3.58	16.61	22.01	15.65	2.72	-11.83	-25.21	-36.97	-47.99	-58.47	-66.7	-69.2	-62.14	-43.54	-14.75	19.34	51.69	75.27	85.34	80.66	63.63	39.12	12.99	-9.43	-24.38	-30.09	-26.8	-16.39	-1.79	13.72	27.24	36.81	41.65	42.07	39.14	34.33	29.26	25.4	23.91	25.39	29.8	36.37	43.91	51.23	57.6	63.02	68.02	73.29	79.07	84.99	90.14	93.56	94.72	93.63	90.76	86.63	81.59	75.76	69.24	62.21	54.79	46.88	37.97	27.28	14.15	-1.29	-17.93	-33.82	-46.86	-55.76	-60.55	-62.63	-64.19	-67.27	-73.07	-81.69	-92.36	-103.89	-115.21	-125.48	-134.03	-140.31	-143.91	-144.8	-143.36	-140.15	-135.3	-127.82	-115.6	-96.1	-67.65	-30.64	12.11	56.07	96.52	130.05	155.37	172.95	184.2	190.29	191.66	188.19	179.73	166.79	150.75	133.66	117.57	103.88	92.88	83.82	75.49
73.29	79.07	84.99	90.14	93.56	94.72	93.63	90.76	86.63	81.59	75.76	69.24	62.21	54.79	46.88	37.97	27.28	14.15	-1.29	-17.93	-33.82	-46.86	-55.76	-60.55	-62.63	-64.19	-67.27	-73.07	-81.69	-92.36	-103.89	-115.21	-125.48	-134.03	-140.31	-143.91	-144.8	-143.36	-140.15	-135.3	-127.82	-115.6	-96.1	-67.65	-30.64	12.11	56.07	96.52	130.05	155.37	172.95	184.2	190.29	191.66	188.19	179.73	166.79	150.75	133.66	117.57	103.88	92.88	83.82	75.49	66.84	57.64	48.53	40.59	34.75	31.17	29.05	26.95	23.37	17.4	9.03	-0.87	-10.98	-20.02	-27.09	-31.94	-34.78	-36.1	-36.49	-36.49	-36.49	-36.72	-37.29	-38.11	-39.07	-40.07	-41.06	-42.01	-42.83	-43.32	-43.13	-42.04	-40.05	-37.51	-34.96	-32.95	-31.84	-31.75	-32.73	-34.85	-38.09	-42.04	-45.57	-46.88	-43.78	-34.5	-18.13	5.21	34.75	69.39	107.65	147.05	183.26	209.87	219.4	205.58	166.36	106.2	36.3	-27.9	-71.07	-82.88	-61.35	-13.52
66.84	57.64	48.53	40.59	34.75	31.17	29.05	26.95	23.37	17.4	9.03	-0.87	-10.98	-20.02	-27.09	-31.94	-34.78	-36.1	-36.49	-36.49	-36.49	-36.72	-37.29	-38.11	-39.07	-40.07	-41.06	-42.01	-42.83	-43.32	-43.13	-42.04	-40.05	-37.51	-34.96	-32.95	-31.84	-31.75	-32.73	-34.85	-38.09	-42.04	-45.57	-46.88	-43.78	-34.5	-18.13	5.21	34.75	69.39	107.65	147.05	183.26	209.87	219.4	205.58	166.36	106.2	36.3	-27.9	-71.07	-82.88	-61.35	-13.52	46.83	103.27	141.19	151.48	132.62	90.76	38.17	-10.04	-40.17	-44.04	-21.59	18.81	62.82	94.87	103.38	84.83	45.32	-1.12	-36.9	-46.96	-24.04	28.66	98.45	167.6	219.19	241.96	232.41	194.22	136.17	69.94	7.9	-39.02	-63.97	-66.52	-53.45	-37.16	-31.5	-47.11	-87.32	-146.6	-212.14	-268.05	-300.63	-303.37	-279.75	-242.74	-210.46	-199.5	-218.09	-262.53	-318.57	-367.41	-392.95	-387.11	-351.19	-293.64	-225.93	-159.06	-101.58	-59.11	-34.24	-26.55	-32.67	-46.66
46.83	103.27	141.19	151.48	132.62	90.76	38.17	-10.04	-40.17	-44.04	-21.59	18.81	62.82	94.87	103.38	84.83	45.32	-1.12	-36.9	-46.96	-24.04	28.66	98.45	167.6	219.19	241.96	232.41	194.22	136.17	69.94	7.9	-39.02	-63.97	-66.52	-53.45	-37.16	-31.5	-47.11	-87.32	-146.6	-212.14	-268.05	-300.63	-303.37	-279.75	-242.74	-210.46	-199.5	-218.09	-262.53	-318.57	-367.41	-392.95	-387.11	-351.19	-293.64	-225.93	-159.06	-101.58	-59.11	-34.24	-26.55	-32.67	-46.66	-61.27	-69.8	-68.03	-55.37	-34.66	-10.83	10.86	26.62	35.03	37.1	35.38	32.77	31.46	32.36	35.39	39.82	44.9	50.21	55.78	61.99	69.35	78.32	89.04	101.21	114.02	126.33	136.9	144.77	149.36	150.49	148.36	143.42	136.49	128.69	121.28	115.39	111.48	109.17	107.32	104.57	100.05	93.75	86.47	79.36	73.35	68.89	66	64.51	64.29	65.13	66.58	67.78	67.81	66.1	62.9	59.28	56.75	56.64	59.69	65.97	75.08	86.4	99.1	112.01
-61.27	-69.8	-68.03	-55.37	-34.66	-10.83	10.86	26.62	35.03	37.1	35.38	32.77	31.46	32.36	35.39	39.82	44.9	50.21	55.78	61.99	69.35	78.32	89.04	101.21	114.02	126.33	136.9	144.77	149.36	150.49	148.36	143.42	136.49	128.69	121.28	115.39	111.48	109.17	107.32	104.57	100.05	93.75	86.47	79.36	73.35	68.89	66	64.51	64.29	65.13	66.58	67.78	67.81	66.1	62.9	59.28	56.75	56.64	59.69	65.97	75.08	86.4	99.1	112.01	123.41	131.23	133.5	128.97	117.57	100.34	78.92	54.8	28.92	1.76	-26.17	-53.79	-79.2	-100.09	-114.47	-121.52	-121.89	-117.45	-110.55	-103.2	-96.72	-91.72	-88.47	-87.19	-88.18	-91.57	-97.18	-104.52	-112.9	-121.71	-130.5	-138.95	-146.8	-153.89	-160.35	-166.68	-173.53	-181.04	-188.64	-195.03	-198.74	-198.97	-196.09	-191.45	-186.49	-181.69	-176.08	-167.87	-155.71	-139.89	-122.89	-108.37	-99.54	-97.8	-102.45	-111.42	-122.61	-134.62	-147.13	-160.37	-173.84	-185.26	-191.05	-187.61
123.41	131.23	133.5	128.97	117.57	100.34	78.92	54.8	28.92	1.76	-26.17	-53.79	-79.2	-100.09	-114.47	-121.52	-121.89	-117.45	-110.55	-103.2	-96.72	-91.72	-88.47	-87.19	-88.18	-91.57	-97.18	-104.52	-112.9	-121.71	-130.5	-138.95	-146.8	-153.89	-160.35	-166.68	-173.53	-181.04	-188.64	-195.03	-198.74	-198.97	-196.09	-191.45	-186.49	-181.69	-176.08	-167.87	-155.71	-139.89	-122.89	-108.37	-99.54	-97.8	-102.45	-111.42	-122.61	-134.62	-147.13	-160.37	-173.84	-185.26	-191.05	-187.61	-172.61	-145.72	-108.34	-62.76	-11.33	44.65	105.08	169.2	233.76	292.2	336.22	359.11	358.37	336.66	300.97	260.22	220.61	184.43	150.82	118.98	90.36	71.56	68.81	83.4	110.62	140.61	164.79	178.82	183.42	182.65	179.79	177.69	179.23	189.92	210.48	237.22	263.21	282.59	292.54	290.18	275.98	253.78	234.26	220.97	212.72	204.28	192.34	176.24	150.82	111.76	58.05	0.02	-59.14	-119.58	-184.66	-252.96	-295.04	-288.44	-225.26	-147.73	-63.1	19.64	100.94	167.41
-172.61	-145.72	-108.34	-62.76	-11.33	44.65	105.08	169.2	233.76	292.2	336.22	359.11	358.37	336.66	300.97	260.22	220.61	184.43	150.82	118.98	90.36	71.56	68.81	83.4	110.62	140.61	164.79	178.82	183.42	182.65	179.79	177.69	179.23	189.92	210.48	237.22	263.21	282.59	292.54	290.18	275.98	253.78	234.26	220.97	212.72	204.28	192.34	176.24	150.82	111.76	58.05	0.02	-59.14	-119.58	-184.66	-252.96	-295.04	-288.44	-225.26	-147.73	-63.1	19.64	100.94	167.41	209.66	226.1	214.36	177.13	121.29	66.08	17.03	-26.94	-71.93	-118.62	-136.03	-107.06	-34.78	24.36	59.88	68.33	65.96	57.58	48.42	42.64	35.91	22.4	-1.39	-26.77	-51.16	-73.53	-95.69	-116.13	-132.35	-146.59	-161.58	-178.42	-190.32	-195.37	-193.35	-186.5	-175.02	-158.39	-138.69	-118.24	-98.62	-77.26	-54.98	-34.19	-19.11	-12.61	-15.94	-29.42	-51.18	-77.46	-102.55	-123.53	-140.41	-156.22	-174.7	-199.17	-231.57	-271.51	-316.16	-360.5	-399.58	-429.41	-447.95	-455.14
209.66	226.1	214.36	177.13	121.29	66.08	17.03	-26.94	-71.93	-118.62	-136.03	-107.06	-34.78	24.36	59.88	68.33	65.96	57.58	48.42	42.64	35.91	22.4	-1.39	-26.77	-51.16	-73.53	-95.69	-116.13	-132.35	-146.59	-161.58	-178.42	-190.32	-195.37	-193.35	-186.5	-175.02	-158.39	-138.69	-118.24	-98.62	-77.26	-54.98	-34.19	-19.11	-12.61	-15.94	-29.42	-51.18	-77.46	-102.55	-123.53	-140.41	-156.22	-174.7	-199.17	-231.57	-271.51	-316.16	-360.5	-399.58	-429.41	-447.95	-455.14	-452.78	-443.74	-430.94	-416.54	-401.68	-386.72	-371.76	-356.88	-342.1	-327.18	-311.55	-294.57	-275.91	-255.86	-235.27	-215.3	-196.91	-180.45	-165.63	-151.64	-137.59	-122.88	-107.43	-91.66	-76.28	-61.98	-49.13	-37.75	-27.5	-17.94	-8.68	0.41	9.18	17.34	24.58	30.71	35.75	39.87	43.35	46.47	49.38	52.17	54.78	57.09	59.04	60.57	61.74	62.66	63.49	64.36	65.36	66.52	67.76	68.97	70	70.79	71.37	71.92	72.65	73.77	75.33	77.25	79.3	81.23
-452.78	-443.74	-430.94	-416.54	-401.68	-386.72	-371.76	-356.88	-342.1	-327.18	-311.55	-294.57	-275.91	-255.86	-235.27	-215.3	-196.91	-180.45	-165.63	-151.64	-137.59	-122.88	-107.43	-91.66	-76.28	-61.98	-49.13	-37.75	-27.5	-17.94	-8.68	0.41	9.18	17.34	24.58	30.71	35.75	39.87	43.35	46.47	49.38	52.17	54.78	57.09	59.04	60.57	61.74	62.66	63.49	64.36	65.36	66.52	67.76	68.97	70	70.79	71.37	71.92	72.65	73.77	75.33	77.25	79.3	81.23	82.94	84.52	86.34	88.86	92.45	97.21	102.91	109.03	115.01	120.53	125.67	130.96	137.12	144.8	154.19	164.99	176.56	188.17	199.39	210.23	221.17	232.9	246.28	262.22	281.44	304.12	329.25	354.22	375.2	388.1	390.07	380.68	362.05	337.99	312.41	287.98	265.71	245.34	226.28	208.25	191.36	175.77	161.26	147.18	132.78	117.73	102.31	87.33	73.71	62.05	52.29	43.74	35.4	26.35	16.22	5.41	-4.96	-13.37	-18.36	-19.08	-15.57	-8.82	-0.45	7.77
82.94	84.52	86.34	88.86	92.45	97.21	102.91	109.03	115.01	120.53	125.67	130.96	137.12	144.8	154.19	164.99	176.56	188.17	199.39	210.23	221.17	232.9	246.28	262.22	281.44	304.12	329.25	354.22	375.2	388.1	390.07	380.68	362.05	337.99	312.41	287.98	265.71	245.34	226.28	208.25	191.36	175.77	161.26	147.18	132.78	117.73	102.31	87.33	73.71	62.05	52.29	43.74	35.4	26.35	16.22	5.41	-4.96	-13.37	-18.36	-19.08	-15.57	-8.82	-0.45	7.77	14.44	18.8	20.79	20.85	19.57	17.5	15.02	12.33	9.59	6.89	4.37	2.15	0.41	-0.74	-1.26	-1.18	-0.71	-0.09	0.44	0.76	0.88	0.83	0.59	0.02	-1.04	-2.74	-5.04	-7.78	-10.64	-13.31	-15.62	-17.54	-19.21	-20.92	-22.99	-25.65	-28.93	-32.5	-35.77	-37.91	-38.08	-35.73	-30.74	-23.5	-14.83	-5.77	2.65	9.63	14.66	17.65	18.72	18.21	16.56	14.21	11.61	9.18	7.21	5.85	5.07	4.63	4.27	3.75	3	2.14
14.44	18.8	20.79	20.85	19.57	17.5	15.02	12.33	9.59	6.89	4.37	2.15	0.41	-0.74	-1.26	-1.18	-0.71	-0.09	0.44	0.76	0.88	0.83	0.59	0.02	-1.04	-2.74	-5.04	-7.78	-10.64	-13.31	-15.62	-17.54	-19.21	-20.92	-22.99	-25.65	-28.93	-32.5	-35.77	-37.91	-38.08	-35.73	-30.74	-23.5	-14.83	-5.77	2.65	9.63	14.66	17.65	18.72	18.21	16.56	14.21	11.61	9.18	7.21	5.85	5.07	4.63	4.27	3.75	3	2.14	1.45	1.17	1.4	1.99	2.58	2.72	2.13	0.68	-1.45	-3.96	-6.52	-8.93	-11.1	-13.06	-14.86	-16.63	-18.49	-20.55	-22.92	-25.51	-27.99	-29.73	-29.98	-28.07	-23.73	-17.24	-9.38	-1.31	5.87	11.39	14.95	16.76	17.19	16.63	15.23	13.01	10.07	6.71	3.48	1.04	-0.15	-0.06	0.96	2.31	3.42	4.01	4.09	3.89	3.61	3.37	3.1	2.67	1.9	0.71	-0.94	-2.96	-5.24	-7.6	-9.92	-12.16	-14.36	-16.62	-19.04	-21.69
1.45	1.17	1.4	1.99	2.58	2.72	2.13	0.68	-1.45	-3.96	-6.52	-8.93	-11.1	-13.06	-14.86	-16.63	-18.49	-20.55	-22.92	-25.51	-27.99	-29.73	-29.98	-28.07	-23.73	-17.24	-9.38	-1.31	5.87	11.39	14.95	16.76	17.19	16.63	15.23	13.01	10.07	6.71	3.48	1.04	-0.15	-0.06	0.96	2.31	3.42	4.01	4.09	3.89	3.61	3.37	3.1	2.67	1.9	0.71	-0.94	-2.96	-5.24	-7.6	-9.92	-12.16	-14.36	-16.62	-19.04	-21.69	-24.56	-27.49	-30.23	-32.31	-33.16	-32.18	-28.96	-23.45	-16.07	-7.7	0.56	7.68	12.97	16.16	17.4	17.1	15.74	13.74	11.41	8.95	6.57	4.5	3.04	2.39	2.59	3.42	4.45	5.18	5.33	4.91	4.21	3.6	3.32	3.32	3.31	2.85	1.65	-0.32	-2.81	-5.41	-7.71	-9.45	-10.62	-11.41	-12.19	-13.28	-14.91	-17.1	-19.65	-22.12	-23.9	-24.32	-22.82	-19.14	-13.48	-6.49	0.82	7.39	12.39	15.43	16.5	15.96	14.29	11.92
-24.56	-27.49	-30.23	-32.31	-33.16	-32.18	-28.96	-23.45	-16.07	-7.7	0.56	7.68	12.97	16.16	17.4	17.1	15.74	13.74	11.41	8.95	6.57	4.5	3.04	2.39	2.59	3.42	4.45	5.18	5.33	4.91	4.21	3.6	3.32	3.32	3.31	2.85	1.65	-0.32	-2.81	-5.41	-7.71	-9.45	-10.62	-11.41	-12.19	-13.28	-14.91	-17.1	-19.65	-22.12	-23.9	-24.32	-22.82	-19.14	-13.48	-6.49	0.82	7.39	12.39	15.43	16.5	15.96	14.29	11.92	9.19	6.37	3.68	1.37	-0.33	-1.24	-1.31	-0.67	0.42	1.64	2.75	3.64	4.39	5.14	6.01	6.99	7.93	8.59	8.74	8.28	7.17	5.45	3.13	0.17	-3.43	-7.66	-12.46	-17.75	-23.41	-29.13	-34.42	-38.52	-40.58	-39.9	-36.28	-30.16	-22.51	-14.54	-7.33	-1.52	2.69	5.41	6.86	7.22	6.62	5.23	3.33	1.28	-0.54	-1.87	-2.67	-3.07	-3.31	-3.64	-4.15	-4.8	-5.45	-5.98	-6.33	-6.61	-7.01	-7.71	-8.89	-10.58
9.19	6.37	3.68	1.37	-0.33	-1.24	-1.31	-0.67	0.42	1.64	2.75	3.64	4.39	5.14	6.01	6.99	7.93	8.59	8.74	8.28	7.17	5.45	3.13	0.17	-3.43	-7.66	-12.46	-17.75	-23.41	-29.13	-34.42	-38.52	-40.58	-39.9	-36.28	-30.16	-22.51	-14.54	-7.33	-1.52	2.69	5.41	6.86	7.22	6.62	5.23	3.33	1.28	-0.54	-1.87	-2.67	-3.07	-3.31	-3.64	-4.15	-4.8	-5.45	-5.98	-6.33	-6.61	-7.01	-7.71	-8.89	-10.58	-12.71	-15.12	-17.56	-19.84	-21.79	-23.43	-24.88	-26.45	-28.47	-31.16	-34.49	-37.95	-40.68	-41.55	-39.62	-34.37	-26.07	-15.67	-4.6	5.68	14.05	19.97	23.43	24.76	24.39	22.74	20.2	17.14	13.96	11.06	8.7	6.89	5.41	3.93	2.18	0.16	-1.84	-3.35	-3.91	-3.4	-2.01	-0.34	0.93	1.27	0.51	-1.17	-3.33	-5.53	-7.54	-9.37	-11.27	-13.49	-16.14	-19.13	-22.17	-24.86	-26.79	-27.52	-26.64	-23.84	-18.99	-12.34	-4.56	3.31
-12.71	-15.12	-17.56	-19.84	-21.79	-23.43	-24.88	-26.45	-28.47	-31.16	-34.49	-37.95	-40.68	-41.55	-39.62	-34.37	-26.07	-15.67	-4.6	5.68	14.05	19.97	23.43	24.76	24.39	22.74	20.2	17.14	13.96	11.06	8.7	6.89	5.41	3.93	2.18	0.16	-1.84	-3.35	-3.91	-3.4	-2.01	-0.34	0.93	1.27	0.51	-1.17	-3.33	-5.53	-7.54	-9.37	-11.27	-13.49	-16.14	-19.13	-22.17	-24.86	-26.79	-27.52	-26.64	-23.84	-18.99	-12.34	-4.56	3.31	10.1	14.91	17.33	17.57	16.27	14.21	11.95	9.72	7.5	5.2	2.89	0.8	-0.75	-1.57	-1.69	-1.32	-0.75	-0.14	0.38	0.77	0.89	0.52	-0.54	-2.3	-4.51	-6.59	-7.93	-8.07	-6.92	-4.79	-2.34	-0.28	0.73	0.26	-1.78	-5.2	-9.54	-14.09	-18.02	-20.53	-20.96	-19.01	-14.81	-8.93	-2.29	4.13	9.53	13.46	15.83	16.81	16.66	15.65	13.96	11.82	9.45	7.12	5.12	3.62	2.7	2.31	2.31	2.57	2.93	3.3
10.1	14.91	17.33	17.57	16.27	14.21	11.95	9.72	7.5	5.2	2.89	0.8	-0.75	-1.57	-1.69	-1.32	-0.75	-0.14	0.38	0.77	0.89	0.52	-0.54	-2.3	-4.51	-6.59	-7.93	-8.07	-6.92	-4.79	-2.34	-0.28	0.73	0.26	-1.78	-5.2	-9.54	-14.09	-18.02	-20.53	-20.96	-19.01	-14.81	-8.93	-2.29	4.13	9.53	13.46	15.83	16.81	16.66	15.65	13.96	11.82	9.45	7.12	5.12	3.62	2.7	2.31	2.31	2.57	2.93	3.3	3.59	3.73	3.66	3.3	2.54	1.3	-0.42	-2.5	-4.73	-6.83	-8.55	-9.79	-10.6	-11.19	-11.85	-12.86	-14.41	-16.48	-18.86	-21.06	-22.48	-22.47	-20.57	-16.69	-11.15	-4.66	1.9	7.74	12.33	15.46	17.19	17.66	17.07	15.58	13.43	10.92	8.48	6.48	5.14	4.48	4.34	4.47	4.63	4.69	4.6	4.45	4.31	4.22	4.11	3.76	2.9	1.33	-0.93	-3.58	-6.18	-8.37	-10	-11.24	-12.46	-14	-16.05	-18.56	-21.24	-23.62
3.59	3.73	3.66	3.3	2.54	1.3	-0.42	-2.5	-4.73	-6.83	-8.55	-9.79	-10.6	-11.19	-11.85	-12.86	-14.41	-16.48	-18.86	-21.06	-22.48	-22.47	-20.57	-16.69	-11.15	-4.66	1.9	7.74	12.33	15.46	17.19	17.66	17.07	15.58	13.43	10.92	8.48	6.48	5.14	4.48	4.34	4.47	4.63	4.69	4.6	4.45	4.31	4.22	4.11	3.76	2.9	1.33	-0.93	-3.58	-6.18	-8.37	-10	-11.24	-12.46	-14	-16.05	-18.56	-21.24	-23.62	-25.14	-25.17	-23.23	-19.14	-13.18	-6.05	1.24	7.73	12.75	16.04	17.74	18.16	17.6	16.3	14.48	12.37	10.25	8.43	7.1	6.3	5.87	5.54	5.06	4.4	3.69	3.21	3.17	3.59	4.19	4.51	4.13	2.8	0.63	-2.06	-4.83	-7.31	-9.34	-10.95	-12.29	-13.63	-15.19	-17.14	-19.49	-21.99	-24.18	-25.39	-24.92	-22.28	-17.4	-10.7	-3.08	4.38	10.72	15.33	18.08	19.21	19.1	18.08	16.4	14.19	11.6	8.91	6.48	4.63
-25.14	-25.17	-23.23	-19.14	-13.18	-6.05	1.24	7.73	12.75	16.04	17.74	18.16	17.6	16.3	14.48	12.37	10.25	8.43	7.1	6.3	5.87	5.54	5.06	4.4	3.69	3.21	3.17	3.59	4.19	4.51	4.13	2.8	0.63	-2.06	-4.83	-7.31	-9.34	-10.95	-12.29	-13.63	-15.19	-17.14	-19.49	-21.99	-24.18	-25.39	-24.92	-22.28	-17.4	-10.7	-3.08	4.38	10.72	15.33	18.08	19.21	19.1	18.08	16.4	14.19	11.6	8.91	6.48	4.63	3.56	3.22	3.35	3.64	3.82	3.76	3.47	3.05	2.59	2.11	1.46	0.44	-1.15	-3.42	-6.29	-9.5	-12.68	-15.45	-17.55	-18.94	-19.76	-20.33	-21.02	-22.13	-23.79	-25.85	-27.81	-28.93	-28.4	-25.67	-20.6	-13.63	-5.55	2.66	10.09	16.12	20.44	23	23.97	23.67	22.43	20.64	18.57	16.39	14.18	12.01	10.05	8.59	7.93	8.26	9.52	11.33	13.17	14.51	15.08	14.84	13.99	12.72	11.1	9.06	6.47	3.34	-0.07	-3.39
3.56	3.22	3.35	3.64	3.82	3.76	3.47	3.05	2.59	2.11	1.46	0.44	-1.15	-3.42	-6.29	-9.5	-12.68	-15.45	-17.55	-18.94	-19.76	-20.33	-21.02	-22.13	-23.79	-25.85	-27.81	-28.93	-28.4	-25.67	-20.6	-13.63	-5.55	2.66	10.09	16.12	20.44	23	23.97	23.67	22.43	20.64	18.57	16.39	14.18	12.01	10.05	8.59	7.93	8.26	9.52	11.33	13.17	14.51	15.08	14.84	13.99	12.72	11.1	9.06	6.47	3.34	-0.07	-3.39	-6.26	-8.6	-10.64	-12.87	-15.78	-19.65	-24.35	-29.37	-33.92	-37.13	-38.26	-36.93	-33.17	-27.39	-20.25	-12.46	-4.67	2.61	8.96	14.06	17.65	19.58	19.99	19.18	17.66	15.9	14.18	12.58	11.08	9.62	8.3	7.27	6.65	6.37	6.2	5.85	5.12	4.08	2.95	2.01	1.3	0.63	-0.35	-1.92	-4.15	-6.8	-9.53	-12.02	-14.18	-16.14	-18.2	-20.63	-23.55	-26.83	-30.04	-32.56	-33.7	-32.9	-29.97	-25.13	-18.98	-12.37	-6.2	-1.22
-6.26	-8.6	-10.64	-12.87	-15.78	-19.65	-24.35	-29.37	-33.92	-37.13	-38.26	-36.93	-33.17	-27.39	-20.25	-12.46	-4.67	2.61	8.96	14.06	17.65	19.58	19.99	19.18	17.66	15.9	14.18	12.58	11.08	9.62	8.3	7.27	6.65	6.37	6.2	5.85	5.12	4.08	2.95	2.01	1.3	0.63	-0.35	-1.92	-4.15	-6.8	-9.53	-12.02	-14.18	-16.14	-18.2	-20.63	-23.55	-26.83	-30.04	-32.56	-33.7	-32.9	-29.97	-25.13	-18.98	-12.37	-6.2	-1.22	2.05	3.43	3.1	1.6	-0.28	-1.7	-2.08	-1.23	0.62	2.9	5.05	6.7	7.74	8.35	8.78	9.24	9.85	10.62	11.42	12.05	12.22	11.67	10.29	8.18	5.69	3.29	1.45	0.37	0.07	0.28	0.66	0.81	0.36	-1.02	-3.49	-6.87	-10.64	-13.83	-15.37	-14.4	-10.61	-4.37	3.31	11.21	18.16	23.38	26.51	27.57	26.81	24.59	21.27	17.3	13.11	9.14	5.76	3.18	1.42	0.35	-0.28	-0.68	-1	-1.26	-1.39	-1.43
2.05	3.43	3.1	1.6	-0.28	-1.7	-2.08	-1.23	0.62	2.9	5.05	6.7	7.74	8.35	8.78	9.24	9.85	10.62	11.42	12.05	12.22	11.67	10.29	8.18	5.69	3.29	1.45	0.37	0.07	0.28	0.66	0.81	0.36	-1.02	-3.49	-6.87	-10.64	-13.83	-15.37	-14.4	-10.61	-4.37	3.31	11.21	18.16	23.38	26.51	27.57	26.81	24.59	21.27	17.3	13.11	9.14	5.76	3.18	1.42	0.35	-0.28	-0.68	-1	-1.26	-1.39	-1.43	-1.47	-1.76	-2.52	-3.81	-5.44	-7.05	-8.25	-8.87	-9.05	-9.17	-9.75	-11.2	-13.77	-17.41	-21.77	-26.2	-29.78	-31.49	-30.46	-26.31	-19.37	-10.66	-1.57	6.66	13.18	17.7	20.28	21.08	20.27	18	14.52	10.27	5.83	1.74	-1.67	-4.31	-6.3	-7.76	-8.71	-9.07	-8.78	-7.88	-6.57	-5.19	-4.07	-3.43	-3.39	-3.97	-5.2	-7.08	-9.59	-12.61	-15.94	-19.35	-22.64	-25.7	-28.41	-30.55	-31.67	-31.2	-28.61	-23.68	-16.71	-8.54
-1.47	-1.76	-2.52	-3.81	-5.44	-7.05	-8.25	-8.87	-9.05	-9.17	-9.75	-11.2	-13.77	-17.41	-21.77	-26.2	-29.78	-31.49	-30.46	-26.31	-19.37	-10.66	-1.57	6.66	13.18	17.7	20.28	21.08	20.27	18	14.52	10.27	5.83	1.74	-1.67	-4.31	-6.3	-7.76	-8.71	-9.07	-8.78	-7.88	-6.57	-5.19	-4.07	-3.43	-3.39	-3.97	-5.2	-7.08	-9.59	-12.61	-15.94	-19.35	-22.64	-25.7	-28.41	-30.55	-31.67	-31.2	-28.61	-23.68	-16.71	-8.54	-0.24	7.18	13.06	17.2	19.74	20.94	21.03	20.13	18.39	16.13	13.83	11.99	10.97	10.76	11.04	11.38	11.49	11.34	11.16	11.16	11.36	11.44	10.96	9.53	7.08	3.9	0.44	-2.91	-6.03	-9.06	-12.26	-15.74	-19.38	-22.76	-25.29	-26.36	-25.5	-22.48	-17.39	-10.62	-2.88	4.92	11.88	17.32	20.94	22.8	23.27	22.74	21.48	19.66	17.37	14.78	12.2	9.95	8.31	7.42	7.24	7.59	8.25	9.01	9.69	10.11	10.12	9.61
-0.24	7.18	13.06	17.2	19.74	20.94	21.03	20.13	18.39	16.13	13.83	11.99	10.97	10.76	11.04	11.38	11.49	11.34	11.16	11.16	11.36	11.44	10.96	9.53	7.08	3.9	0.44	-2.91	-6.03	-9.06	-12.26	-15.74	-19.38	-22.76	-25.29	-26.36	-25.5	-22.48	-17.39	-10.62	-2.88	4.92	11.88	17.32	20.94	22.8	23.27	22.74	21.48	19.66	17.37	14.78	12.2	9.95	8.31	7.42	7.24	7.59	8.25	9.01	9.69	10.11	10.12	9.61	8.55	6.98	5.01	2.8	0.46	-1.91	-4.27	-6.66	-9.16	-11.87	-14.86	-18.03	-21.06	-23.41	-24.38	-23.35	-20.01	-14.52	-7.51	0.06	7.13	12.89	16.91	19.17	19.92	19.51	18.28	16.56	14.65	12.87	11.45	10.49	9.92	9.55	9.17	8.69	8.15	7.67	7.33	7.12	6.91	6.51	5.76	4.6	3.04	1.21	-0.75	-2.73	-4.64	-6.5	-8.4	-10.46	-12.79	-15.39	-18.09	-20.48	-21.97	-21.96	-20	-16.05	-10.47	-3.97	2.63	8.61
8.55	6.98	5.01	2.8	0.46	-1.91	-4.27	-6.66	-9.16	-11.87	-14.86	-18.03	-21.06	-23.41	-24.38	-23.35	-20.01	-14.52	-7.51	0.06	7.13	12.89	16.91	19.17	19.92	19.51	18.28	16.56	14.65	12.87	11.45	10.49	9.92	9.55	9.17	8.69	8.15	7.67	7.33	7.12	6.91	6.51	5.76	4.6	3.04	1.21	-0.75	-2.73	-4.64	-6.5	-8.4	-10.46	-12.79	-15.39	-18.09	-20.48	-21.97	-21.96	-20	-16.05	-10.47	-3.97	2.63	8.61	13.48	17.07	19.36	20.38	20.2	18.9	16.66	13.8	10.73	7.88	5.58	3.98	3.08	2.74	2.8	3.08	3.48	3.94	4.42	4.86	5.08	4.89	4.07	2.59	0.59	-1.69	-3.96	-6.09	-8.12	-10.22	-12.6	-15.32	-18.28	-21.16	-23.48	-24.74	-24.44	-22.24	-18.07	-12.2	-5.26	1.91	8.45	13.71	17.34	19.31	19.8	19.03	17.23	14.62	11.52	8.4	5.77	4.11	3.64	4.33	5.85	7.79	9.75	11.45	12.69	13.28	13.07	11.92
13.48	17.07	19.36	20.38	20.2	18.9	16.66	13.8	10.73	7.88	5.58	3.98	3.08	2.74	2.8	3.08	3.48	3.94	4.42	4.86	5.08	4.89	4.07	2.59	0.59	-1.69	-3.96	-6.09	-8.12	-10.22	-12.6	-15.32	-18.28	-21.16	-23.48	-24.74	-24.44	-22.24	-18.07	-12.2	-5.26	1.91	8.45	13.71	17.34	19.31	19.8	19.03	17.23	14.62	11.52	8.4	5.77	4.11	3.64	4.33	5.85	7.79	9.75	11.45	12.69	13.28	13.07	11.92	9.76	6.76	3.26	-0.33	-3.62	-6.36	-8.55	-10.38	-12.13	-14.06	-16.22	-18.42	-20.21	-20.97	-20.14	-17.47	-13.08	-7.51	-1.48	4.28	9.19	12.97	15.48	16.72	16.77	15.78	14.03	11.85	9.59	7.53	5.81	4.48	3.49	2.82	2.42	2.28	2.38	2.64	2.97	3.22	3.29	3.01	2.34	1.26	-0.17	-1.82	-3.59	-5.39	-7.15	-8.81	-10.31	-11.69	-13.05	-14.61	-16.51	-18.61	-20.44	-21.23	-20.2	-16.97	-11.71	-5.21	1.47	7.36
9.76	6.76	3.26	-0.33	-3.62	-6.36	-8.55	-10.38	-12.13	-14.06	-16.22	-18.42	-20.21	-20.97	-20.14	-17.47	-13.08	-7.51	-1.48	4.28	9.19	12.97	15.48	16.72	16.77	15.78	14.03	11.85	9.59	7.53	5.81	4.48	3.49	2.82	2.42	2.28	2.38	2.64	2.97	3.22	3.29	3.01	2.34	1.26	-0.17	-1.82	-3.59	-5.39	-7.15	-8.81	-10.31	-11.69	-13.05	-14.61	-16.51	-18.61	-20.44	-21.23	-20.2	-16.97	-11.71	-5.21	1.47	7.36	11.86	14.82	16.35	16.69	15.99	14.38	12.06	9.34	6.65	4.37	2.8	1.95	1.74	1.95	2.37	2.82	3.21	3.52	3.78	4.05	4.29	4.38	4.1	3.23	1.7	-0.35	-2.6	-4.69	-6.4	-7.78	-9.09	-10.67	-12.75	-15.34	-18.24	-21.1	-23.5	-25.03	-25.3	-24	-21.04	-16.61	-11.2	-5.53	-0.31	3.92	6.89	8.61	9.26	9.05	8.2	6.85	5.14	3.24	1.35	-0.3	-1.46	-2.03	-2.07	-1.78	-1.45	-1.32	-1.47	-1.8
11.86	14.82	16.35	16.69	15.99	14.38	12.06	9.34	6.65	4.37	2.8	1.95	1.74	1.95	2.37	2.82	3.21	3.52	3.78	4.05	4.29	4.38	4.1	3.23	1.7	-0.35	-2.6	-4.69	-6.4	-7.78	-9.09	-10.67	-12.75	-15.34	-18.24	-21.1	-23.5	-25.03	-25.3	-24	-21.04	-16.61	-11.2	-5.53	-0.31	3.92	6.89	8.61	9.26	9.05	8.2	6.85	5.14	3.24	1.35	-0.3	-1.46	-2.03	-2.07	-1.78	-1.45	-1.32	-1.47	-1.8	-2.14	-2.35	-2.45	-2.61	-3.04	-3.85	-4.97	-6.19	-7.31	-8.19	-8.92	-9.75	-10.96	-12.8	-15.3	-18.23	-21.07	-23.12	-23.59	-21.91	-17.88	-11.83	-4.54	2.96	9.68	14.9	18.29	19.85	19.8	18.48	16.25	13.48	10.54	7.8	5.57	4.07	3.34	3.31	3.72	4.32	4.84	5.14	5.17	4.94	4.45	3.63	2.41	0.78	-1.15	-3.2	-5.11	-6.77	-8.27	-9.86	-11.87	-14.48	-17.61	-20.88	-23.69	-25.36	-25.35	-23.39	-19.54	-14.18
-2.14	-2.35	-2.45	-2.61	-3.04	-3.85	-4.97	-6.19	-7.31	-8.19	-8.92	-9.75	-10.96	-12.8	-15.3	-18.23	-21.07	-23.12	-23.59	-21.91	-17.88	-11.83	-4.54	2.96	9.68	14.9	18.29	19.85	19.8	18.48	16.25	13.48	10.54	7.8	5.57	4.07	3.34	3.31	3.72	4.32	4.84	5.14	5.17	4.94	4.45	3.63	2.41	0.78	-1.15	-3.2	-5.11	-6.77	-8.27	-9.86	-11.87	-14.48	-17.61	-20.88	-23.69	-25.36	-25.35	-23.39	-19.54	-14.18	-7.87	-1.27	4.99	10.36	14.42	16.92	17.8	17.27	15.72	13.67	11.59	9.77	8.3	7.07	5.95	4.86	3.82	2.9	2.16	1.57	1.08	0.57	-0.02	-0.76	-1.7	-2.89	-4.35	-5.99	-7.64	-9.11	-10.31	-11.27	-12.25	-13.56	-15.45	-17.98	-20.88	-23.59	-25.36	-25.47	-23.45	-19.26	-13.37	-6.67	-0.19	5.16	8.9	11	11.77	11.59	10.74	9.37	7.59	5.55	3.56	1.91	0.8	0.22	-0	-0	0.22	0.83	1.99	3.64
-7.87	-1.27	4.99	10.36	14.42	16.92	17.8	17.27	15.72	13.67	11.59	9.77	8.3	7.07	5.95	4.86	3.82	2.9	2.16	1.57	1.08	0.57	-0.02	-0.76	-1.7	-2.89	-4.35	-5.99	-7.64	-9.11	-10.31	-11.27	-12.25	-13.56	-15.45	-17.98	-20.88	-23.59	-25.36	-25.47	-23.45	-19.26	-13.37	-6.67	-0.19	5.16	8.9	11	11.77	11.59	10.74	9.37	7.59	5.55	3.56	1.91	0.8	0.22	-0	-0	0.22	0.83	1.99	3.64	5.39	6.7	7.05	6.22	4.36	1.9	-0.79	-3.5	-6.24	-9.22	-12.55	-16.24	-20.06	-23.63	-26.41	-27.77	-27.11	-24.03	-18.55	-11.2	-2.97	4.99	11.67	16.49	19.33	20.4	20.03	18.55	16.33	13.77	11.32	9.37	8.08	7.35	6.9	6.47	6.02	5.66	5.61	5.93	6.44	6.75	6.49	5.46	3.77	1.71	-0.42	-2.42	-4.34	-6.36	-8.68	-11.43	-14.54	-17.82	-20.88	-23.26	-24.38	-23.75	-21.02	-16.13	-9.47	-1.74	6.12	13.2
5.39	6.7	7.05	6.22	4.36	1.9	-0.79	-3.5	-6.24	-9.22	-12.55	-16.24	-20.06	-23.63	-26.41	-27.77	-27.11	-24.03	-18.55	-11.2	-2.97	4.99	11.67	16.49	19.33	20.4	20.03	18.55	16.33	13.77	11.32	9.37	8.08	7.35	6.9	6.47	6.02	5.66	5.61	5.93	6.44	6.75	6.49	5.46	3.77	1.71	-0.42	-2.42	-4.34	-6.36	-8.68	-11.43	-14.54	-17.82	-20.88	-23.26	-24.38	-23.75	-21.02	-16.13	-9.47	-1.74	6.12	13.2	18.81	22.61	24.64	25.19	24.67	23.44	21.79	19.95	18.07	16.34	14.91	13.91	13.39	13.32	13.61	14.14	14.75	15.26	15.48	15.21	14.3	12.75	10.69	8.35	6.02	3.88	2.03	0.45	-0.99	-2.51	-4.35	-6.73	-9.66	-12.82	-15.54	-16.91	-16.12	-12.73	-6.87	0.77	9.24	17.56	24.98	31.04	35.57	38.54	40.04	40.18	39.13	37.16	34.62	31.96	29.62	27.98	27.26	27.52	28.57	30.18	32.12	34.23	36.44	38.69	40.86	42.73
18.81	22.61	24.64	25.19	24.67	23.44	21.79	19.95	18.07	16.34	14.91	13.91	13.39	13.32	13.61	14.14	14.75	15.26	15.48	15.21	14.3	12.75	10.69	8.35	6.02	3.88	2.03	0.45	-0.99	-2.51	-4.35	-6.73	-9.66	-12.82	-15.54	-16.91	-16.12	-12.73	-6.87	0.77	9.24	17.56	24.98	31.04	35.57	38.54	40.04	40.18	39.13	37.16	34.62	31.96	29.62	27.98	27.26	27.52	28.57	30.18	32.12	34.23	36.44	38.69	40.86	42.73	44.06	44.59	44.08	42.3	38.93	33.6	25.94	15.82	3.45	-10.56	-25.25	-39.6	-52.66	-63.71	-72.23	-77.81	-80.11	-78.88	-74.15	-66.38	-56.49	-45.7	-35.28	-26.18	-18.83	-13.23	-9.09	-6.08	-4.05	-2.97	-2.85	-3.53	-4.64	-5.65	-6.07	-5.64	-4.41	-2.69	-0.93	0.49	1.3	1.41	0.9	-0.1	-1.41	-2.92	-4.58	-6.35	-8.22	-10.15	-11.98	-13.52	-14.64	-15.33	-15.81	-16.41	-17.48	-19.18	-21.45	-23.9	-25.95	-26.93	-26.22	-23.45
44.06	44.59	44.08	42.3	38.93	33.6	25.94	15.82	3.45	-10.56	-25.25	-39.6	-52.66	-63.71	-72.23	-77.81	-80.11	-78.88	-74.15	-66.38	-56.49	-45.7	-35.28	-26.18	-18.83	-13.23	-9.09	-6.08	-4.05	-2.97	-2.85	-3.53	-4.64	-5.65	-6.07	-5.64	-4.41	-2.69	-0.93	0.49	1.3	1.41	0.9	-0.1	-1.41	-2.92	-4.58	-6.35	-8.22	-10.15	-11.98	-13.52	-14.64	-15.33	-15.81	-16.41	-17.48	-19.18	-21.45	-23.9	-25.95	-26.93	-26.22	-23.45	-18.6	-12.1	-4.67	2.75	9.34	14.51	18.06	20.07	20.79	20.49	19.5	18.11	16.62	15.35	14.44	13.91	13.61	13.39	13.13	12.82	12.53	12.3	12.14	12.01	11.81	11.44	10.8	9.78	8.29	6.33	3.98	1.42	-1.1	-3.4	-5.4	-7.17	-8.87	-10.76	-13.02	-15.74	-18.79	-21.81	-24.2	-25.28	-24.46	-21.45	-16.39	-9.84	-2.68	4.15	9.8	13.78	15.96	16.55	15.97	14.7	13.12	11.48	9.91	8.52	7.37	6.57	6.2	6.23
-18.6	-12.1	-4.67	2.75	9.34	14.51	18.06	20.07	20.79	20.49	19.5	18.11	16.62	15.35	14.44	13.91	13.61	13.39	13.13	12.82	12.53	12.3	12.14	12.01	11.81	11.44	10.8	9.78	8.29	6.33	3.98	1.42	-1.1	-3.4	-5.4	-7.17	-8.87	-10.76	-13.02	-15.74	-18.79	-21.81	-24.2	-25.28	-24.46	-21.45	-16.39	-9.84	-2.68	4.15	9.8	13.78	15.96	16.55	15.97	14.7	13.12	11.48	9.91	8.52	7.37	6.57	6.2	6.23	6.54	6.95	7.29	7.46	7.46	7.35	7.13	6.82	6.29	5.4	4.01	2.09	-0.26	-2.79	-5.15	-7.05	-8.39	-9.26	-10	-10.99	-12.53	-14.73	-17.5	-20.57	-23.54	-25.88	-26.98	-26.22	-23.23	-18.03	-11.15	-3.54	3.73	9.79	14.12	16.66	17.64	17.45	16.42	14.83	12.92	10.85	8.8	6.91	5.36	4.29	3.77	3.75	4.03	4.37	4.61	4.74	4.88	5.19	5.67	6.1	6.08	5.27	3.5	0.93	-2.03	-4.88	-7.25	-8.97
6.54	6.95	7.29	7.46	7.46	7.35	7.13	6.82	6.29	5.4	4.01	2.09	-0.26	-2.79	-5.15	-7.05	-8.39	-9.26	-10	-10.99	-12.53	-14.73	-17.5	-20.57	-23.54	-25.88	-26.98	-26.22	-23.23	-18.03	-11.15	-3.54	3.73	9.79	14.12	16.66	17.64	17.45	16.42	14.83	12.92	10.85	8.8	6.91	5.36	4.29	3.77	3.75	4.03	4.37	4.61	4.74	4.88	5.19	5.67	6.1	6.08	5.27	3.5	0.93	-2.03	-4.88	-7.25	-8.97	-10.16	-11.04	-11.9	-13	-14.51	-16.51	-19.03	-21.92	-24.82	-27.21	-28.46	-27.96	-25.38	-20.78	-14.66	-7.86	-1.27	4.34	8.53	11.26	12.67	13.03	12.54	11.29	9.43	7.17	4.87	2.91	1.64	1.16	1.35	1.91	2.56	3.11	3.51	3.83	4.11	4.33	4.35	4.01	3.19	1.83	0.01	-2.09	-4.28	-6.39	-8.31	-9.99	-11.47	-12.84	-14.28	-15.94	-17.9	-20.13	-22.36	-24.14	-24.86	-23.98	-21.16	-16.41	-10.09	-2.87	4.48	11.25
-10.16	-11.04	-11.9	-13	-14.51	-16.51	-19.03	-21.92	-24.82	-27.21	-28.46	-27.96	-25.38	-20.78	-14.66	-7.86	-1.27	4.34	8.53	11.26	12.67	13.03	12.54	11.29	9.43	7.17	4.87	2.91	1.64	1.16	1.35	1.91	2.56	3.11	3.51	3.83	4.11	4.33	4.35	4.01	3.19	1.83	0.01	-2.09	-4.28	-6.39	-8.31	-9.99	-11.47	-12.84	-14.28	-15.94	-17.9	-20.13	-22.36	-24.14	-24.86	-23.98	-21.16	-16.41	-10.09	-2.87	4.48	11.25	16.88	21.06	23.67	24.73	24.4	22.92	20.65	17.98	15.33	13.03	11.26	10.08	9.39	9.02	8.79	8.56	8.3	8.08	7.98	8.04	8.13	7.94	7.07	5.22	2.35	-1.23	-4.96	-8.26	-10.75	-12.41	-13.49	-14.42	-15.59	-17.25	-19.48	-22.15	-24.96	-27.39	-28.81	-28.58	-26.27	-21.86	-15.81	-8.94	-2.19	3.63	8.1	11.11	12.79	13.38	13.07	12.05	10.49	8.64	6.81	5.26	4.2	3.67	3.58	3.77	4.06	4.31	4.48	4.64
16.88	21.06	23.67	24.73	24.4	22.92	20.65	17.98	15.33	13.03	11.26	10.08	9.39	9.02	8.79	8.56	8.3	8.08	7.98	8.04	8.13	7.94	7.07	5.22	2.35	-1.23	-4.96	-8.26	-10.75	-12.41	-13.49	-14.42	-15.59	-17.25	-19.48	-22.15	-24.96	-27.39	-28.81	-28.58	-26.27	-21.86	-15.81	-8.94	-2.19	3.63	8.1	11.11	12.79	13.38	13.07	12.05	10.49	8.64	6.81	5.26	4.2	3.67	3.58	3.77	4.06	4.31	4.48	4.64	4.91	5.36	5.92	6.36	6.34	5.57	3.92	1.57	-1.12	-3.74	-6	-7.84	-9.46	-11.16	-13.23	-15.81	-18.84	-22.11	-25.2	-27.6	-28.66	-27.78	-24.61	-19.2	-12.07	-4.1	3.66	10.33	15.32	18.4	19.62	19.22	17.5	14.85	11.69	8.47	5.59	3.38	1.98	1.35	1.27	1.45	1.59	1.53	1.29	0.98	0.69	0.37	-0.23	-1.45	-3.52	-6.41	-9.8	-13.15	-15.93	-17.86	-18.92	-19.3	-19.32	-19.25	-19.28	-19.48	-19.76	-19.88
4.91	5.36	5.92	6.36	6.34	5.57	3.92	1.57	-1.12	-3.74	-6	-7.84	-9.46	-11.16	-13.23	-15.81	-18.84	-22.11	-25.2	-27.6	-28.66	-27.78	-24.61	-19.2	-12.07	-4.1	3.66	10.33	15.32	18.4	19.62	19.22	17.5	14.85	11.69	8.47	5.59	3.38	1.98	1.35	1.27	1.45	1.59	1.53	1.29	0.98	0.69	0.37	-0.23	-1.45	-3.52	-6.41	-9.8	-13.15	-15.93	-17.86	-18.92	-19.3	-19.32	-19.25	-19.28	-19.48	-19.76	-19.88	-19.42	-17.84	-14.64	-9.52	-2.64	5.34	13.38	20.36	25.48	28.49	29.67	29.58	28.7	27.27	25.3	22.82	20.05	17.44	15.49	14.5	14.41	14.9	15.52	15.95	16.06	15.81	15.21	14.24	12.82	10.93	8.61	5.93	3.02	-0	-3.02	-5.92	-8.64	-11.22	-13.85	-16.77	-20.13	-23.85	-27.43	-30.08	-30.9	-29.21	-24.81	-18.07	-9.93	-1.51	6.11	12.28	16.77	19.7	21.33	21.85	21.35	19.91	17.72	15.21	12.91	11.27	10.46	10.38
-19.42	-17.84	-14.64	-9.52	-2.64	5.34	13.38	20.36	25.48	28.49	29.67	29.58	28.7	27.27	25.3	22.82	20.05	17.44	15.49	14.5	14.41	14.9	15.52	15.95	16.06	15.81	15.21	14.24	12.82	10.93	8.61	5.93	3.02	-0	-3.02	-5.92	-8.64	-11.22	-13.85	-16.77	-20.13	-23.85	-27.43	-30.08	-30.9	-29.21	-24.81	-18.07	-9.93	-1.51	6.11	12.28	16.77	19.7	21.33	21.85	21.35	19.91	17.72	15.21	12.91	11.27	10.46	10.38	10.66	10.99	11.17	11.17	11.07	10.93	10.71	10.26	9.46	8.19	6.48	4.42	2.17	-0.08	-2.15	-3.96	-5.5	-6.93	-8.51	-10.52	-13.15	-16.39	-19.94	-23.27	-25.68	-26.46	-25.08	-21.31	-15.37	-7.88	0.22	7.96	14.44	19.17	22.03	23.24	23.16	22.15	20.45	18.22	15.6	12.85	10.31	8.33	7.2	6.95	7.42	8.28	9.19	9.91	10.4	10.77	11.17	11.64	12.07	12.2	11.76	10.57	8.72	6.43	4.04	1.75	-0.38	-2.49
10.66	10.99	11.17	11.17	11.07	10.93	10.71	10.26	9.46	8.19	6.48	4.42	2.17	-0.08	-2.15	-3.96	-5.5	-6.93	-8.51	-10.52	-13.15	-16.39	-19.94	-23.27	-25.68	-26.46	-25.08	-21.31	-15.37	-7.88	0.22	7.96	14.44	19.17	22.03	23.24	23.16	22.15	20.45	18.22	15.6	12.85	10.31	8.33	7.2	6.95	7.42	8.28	9.19	9.91	10.4	10.77	11.17	11.64	12.07	12.2	11.76	10.57	8.72	6.43	4.04	1.75	-0.38	-2.49	-4.77	-7.39	-10.37	-13.63	-17.05	-20.42	-23.45	-25.65	-26.32	-24.79	-20.64	-14	-5.56	3.44	11.72	18.2	22.32	24	23.57	21.52	18.44	14.86	11.34	8.39	6.44	5.79	6.54	8.49	11.19	14.04	16.47	18.08	18.77	18.71	18.15	17.29	16.16	14.68	12.78	10.43	7.76	4.96	2.2	-0.47	-3.06	-5.61	-8.17	-10.75	-13.32	-15.85	-18.29	-20.6	-22.74	-24.67	-26.34	-27.67	-28.49	-28.51	-27.32	-24.53	-19.86	-13.42	-5.72	2.35
-4.77	-7.39	-10.37	-13.63	-17.05	-20.42	-23.45	-25.65	-26.32	-24.79	-20.64	-14	-5.56	3.44	11.72	18.2	22.32	24	23.57	21.52	18.44	14.86	11.34	8.39	6.44	5.79	6.54	8.49	11.19	14.04	16.47	18.08	18.77	18.71	18.15	17.29	16.16	14.68	12.78	10.43	7.76	4.96	2.2	-0.47	-3.06	-5.61	-8.17	-10.75	-13.32	-15.85	-18.29	-20.6	-22.74	-24.67	-26.34	-27.67	-28.49	-28.51	-27.32	-24.53	-19.86	-13.42	-5.72	2.35	9.8	15.77	19.82	21.95	22.48	21.85	20.44	18.45	15.97	13.16	10.34	7.96	6.54	6.39	7.53	9.6	12.04	14.29	15.96	16.95	17.37	17.42	17.23	16.81	16.13	15.16	13.89	12.37	10.6	8.58	6.28	3.72	0.97	-1.91	-4.88	-7.96	-11.25	-14.8	-18.54	-22.2	-25.29	-27.12	-27.02	-24.58	-19.75	-13.06	-5.42	2.06	8.45	13.15	16.05	17.36	17.49	16.83	15.67	14.22	12.59	10.92	9.29	7.81	6.49	5.37	4.36	3.34
9.8	15.77	19.82	21.95	22.48	21.85	20.44	18.45	15.97	13.16	10.34	7.96	6.54	6.39	7.53	9.6	12.04	14.29	15.96	16.95	17.37	17.42	17.23	16.81	16.13	15.16	13.89	12.37	10.6	8.58	6.28	3.72	0.97	-1.91	-4.88	-7.96	-11.25	-14.8	-18.54	-22.2	-25.29	-27.12	-27.02	-24.58	-19.75	-13.06	-5.42	2.06	8.45	13.15	16.05	17.36	17.49	16.83	15.67	14.22	12.59	10.92	9.29	7.81	6.49	5.37	4.36	3.34	2.19	0.87	-0.51	-1.75	-2.61	-3	-3.05	-3.08	-3.48	-4.52	-6.26	-8.54	-11.06	-13.54	-15.8	-17.73	-19.3	-20.53	-21.55	-22.57	-23.86	-25.65	-27.88	-30.21	-32.02	-32.56	-31.21	-27.72	-22.21	-15.23	-7.57	-0.09	6.44	11.51	14.89	16.66	17.08	16.54	15.37	13.8	11.99	10.09	8.32	6.93	6.13	6.03	6.56	7.5	8.59	9.58	10.31	10.67	10.61	10.06	8.98	7.41	5.44	3.23	0.97	-1.23	-3.31	-5.32	-7.32	-9.35
2.19	0.87	-0.51	-1.75	-2.61	-3	-3.05	-3.08	-3.48	-4.52	-6.26	-8.54	-11.06	-13.54	-15.8	-17.73	-19.3	-20.53	-21.55	-22.57	-23.86	-25.65	-27.88	-30.21	-32.02	-32.56	-31.21	-27.72	-22.21	-15.23	-7.57	-0.09	6.44	11.51	14.89	16.66	17.08	16.54	15.37	13.8	11.99	10.09	8.32	6.93	6.13	6.03	6.56	7.5	8.59	9.58	10.31	10.67	10.61	10.06	8.98	7.41	5.44	3.23	0.97	-1.23	-3.31	-5.32	-7.32	-9.35	-11.37	-13.33	-15.13	-16.81	-18.44	-20.2	-22.2	-24.41	-26.61	-28.4	-29.26	-28.72	-26.47	-22.46	-16.94	-10.43	-3.65	2.61	7.7	11.22	13.09	13.47	12.73	11.23	9.3	7.19	5.13	3.33	1.97	1.13	0.75	0.71	0.87	1.17	1.62	2.26	3.08	3.91	4.48	4.53	3.9	2.58	0.7	-1.55	-3.99	-6.48	-8.91	-11.17	-13.17	-14.91	-16.53	-18.27	-20.44	-23.16	-26.29	-29.3	-31.39	-31.7	-29.65	-25.11	-18.46	-10.53	-2.32	5.22
-11.37	-13.33	-15.13	-16.81	-18.44	-20.2	-22.2	-24.41	-26.61	-28.4	-29.26	-28.72	-26.47	-22.46	-16.94	-10.43	-3.65	2.61	7.7	11.22	13.09	13.47	12.73	11.23	9.3	7.19	5.13	3.33	1.97	1.13	0.75	0.71	0.87	1.17	1.62	2.26	3.08	3.91	4.48	4.53	3.9	2.58	0.7	-1.55	-3.99	-6.48	-8.91	-11.17	-13.17	-14.91	-16.53	-18.27	-20.44	-23.16	-26.29	-29.3	-31.39	-31.7	-29.65	-25.11	-18.46	-10.53	-2.32	5.22	11.37	15.79	18.41	19.38	18.98	17.5	15.27	12.72	10.26	8.3	7.12	6.82	7.35	8.49	9.95	11.46	12.76	13.63	13.9	13.46	12.33	10.62	8.47	6.01	3.29	0.36	-2.67	-5.64	-8.35	-10.66	-12.59	-14.39	-16.39	-18.89	-21.92	-25.14	-27.88	-29.28	-28.57	-25.37	-19.8	-12.52	-4.51	3.19	9.79	14.85	18.3	20.32	21.16	21.02	20.03	18.32	16.07	13.6	11.25	9.35	8.07	7.39	7.16	7.19	7.35	7.62	8.01	8.48
11.37	15.79	18.41	19.38	18.98	17.5	15.27	12.72	10.26	8.3	7.12	6.82	7.35	8.49	9.95	11.46	12.76	13.63	13.9	13.46	12.33	10.62	8.47	6.01	3.29	0.36	-2.67	-5.64	-8.35	-10.66	-12.59	-14.39	-16.39	-18.89	-21.92	-25.14	-27.88	-29.28	-28.57	-25.37	-19.8	-12.52	-4.51	3.19	9.79	14.85	18.3	20.32	21.16	21.02	20.03	18.32	16.07	13.6	11.25	9.35	8.07	7.39	7.16	7.19	7.35	7.62	8.01	8.48	8.89	9	8.58	7.53	5.89	3.83	1.52	-0.91	-3.44	-6.05	-8.68	-11.19	-13.42	-15.34	-17.1	-19.06	-21.54	-24.64	-27.97	-30.67	-31.69	-30.08	-25.53	-18.45	-9.96	-1.4	6.05	11.69	15.38	17.34	17.91	17.38	15.97	13.85	11.32	8.75	6.52	4.96	4.18	4.09	4.4	4.8	5.05	5.07	4.94	4.8	4.77	4.84	4.83	4.48	3.57	2.02	-0.07	-2.42	-4.77	-6.89	-8.75	-10.45	-12.19	-14.23	-16.76	-19.91	-23.57	-27.39
8.89	9	8.58	7.53	5.89	3.83	1.52	-0.91	-3.44	-6.05	-8.68	-11.19	-13.42	-15.34	-17.1	-19.06	-21.54	-24.64	-27.97	-30.67	-31.69	-30.08	-25.53	-18.45	-9.96	-1.4	6.05	11.69	15.38	17.34	17.91	17.38	15.97	13.85	11.32	8.75	6.52	4.96	4.18	4.09	4.4	4.8	5.05	5.07	4.94	4.8	4.77	4.84	4.83	4.48	3.57	2.02	-0.07	-2.42	-4.77	-6.89	-8.75	-10.45	-12.19	-14.23	-16.76	-19.91	-23.57	-27.39	-30.76	-32.89	-32.98	-30.5	-25.34	-17.89	-9.02	0.21	8.77	15.88	21.06	24.17	25.34	24.9	23.31	21.08	18.68	16.44	14.57	13.16	12.22	11.7	11.56	11.67	11.88	12	11.96	11.8	11.65	11.62	11.7	11.64	11.08	9.68	7.33	4.26	0.93	-2.17	-4.73	-6.77	-8.6	-10.67	-13.31	-16.7	-20.69	-24.93	-28.81	-31.62	-32.65	-31.32	-27.34	-20.92	-12.72	-3.76	4.83	12.11	17.55	21.03	22.78	23.13	22.41	20.84	18.62	15.95
-30.76	-32.89	-32.98	-30.5	-25.34	-17.89	-9.02	0.21	8.77	15.88	21.06	24.17	25.34	24.9	23.31	21.08	18.68	16.44	14.57	13.16	12.22	11.7	11.56	11.67	11.88	12	11.96	11.8	11.65	11.62	11.7	11.64	11.08	9.68	7.33	4.26	0.93	-2.17	-4.73	-6.77	-8.6	-10.67	-13.31	-16.7	-20.69	-24.93	-28.81	-31.62	-32.65	-31.32	-27.34	-20.92	-12.72	-3.76	4.83	12.11	17.55	21.03	22.78	23.13	22.41	20.84	18.62	15.95	13.14	10.57	8.6	7.4	6.95	7.03	7.33	7.68	8.03	8.42	8.87	9.3	9.47	9.08	7.95	6.08	3.64	0.93	-1.74	-4.21	-6.41	-8.46	-10.59	-13.08	-16.17	-19.92	-24.07	-28.04	-30.95	-31.88	-30.13	-25.46	-18.19	-9.2	0.31	9.13	16.29	21.29	24.12	25.12	24.81	23.6	21.79	19.55	17	14.37	11.96	10.09	8.96	8.59	8.8	9.32	9.89	10.38	10.73	10.97	11.05	10.89	10.31	9.13	7.23	4.62	1.47	-1.91
13.14	10.57	8.6	7.4	6.95	7.03	7.33	7.68	8.03	8.42	8.87	9.3	9.47	9.08	7.95	6.08	3.64	0.93	-1.74	-4.21	-6.41	-8.46	-10.59	-13.08	-16.17	-19.92	-24.07	-28.04	-30.95	-31.88	-30.13	-25.46	-18.19	-9.2	0.31	9.13	16.29	21.29	24.12	25.12	24.81	23.6	21.79	19.55	17	14.37	11.96	10.09	8.96	8.59	8.8	9.32	9.89	10.38	10.73	10.97	11.05	10.89	10.31	9.13	7.23	4.62	1.47	-1.91	-5.15	-8	-10.36	-12.4	-14.51	-17.1	-20.39	-24.23	-27.98	-30.71	-31.45	-29.54	-24.85	-17.85	-9.38	-0.53	7.75	14.77	20.13	23.76	25.74	26.24	25.47	23.7	21.24	18.53	16.02	14.11	13.01	12.69	12.9	13.3	13.62	13.75	13.73	13.67	13.62	13.57	13.39	12.94	12.07	10.63	8.57	5.91	2.77	-0.54	-3.69	-6.36	-8.43	-10.02	-11.4	-12.94	-14.97	-17.68	-21.02	-24.73	-28.3	-31	-32.03	-30.74	-26.79	-20.39	-12.28	-3.54
-5.15	-8	-10.36	-12.4	-14.51	-17.1	-20.39	-24.23	-27.98	-30.71	-31.45	-29.54	-24.85	-17.85	-9.38	-0.53	7.75	14.77	20.13	23.76	25.74	26.24	25.47	23.7	21.24	18.53	16.02	14.11	13.01	12.69	12.9	13.3	13.62	13.75	13.73	13.67	13.62	13.57	13.39	12.94	12.07	10.63	8.57	5.91	2.77	-0.54	-3.69	-6.36	-8.43	-10.02	-11.4	-12.94	-14.97	-17.68	-21.02	-24.73	-28.3	-31	-32.03	-30.74	-26.79	-20.39	-12.28	-3.54	4.68	11.48	16.4	19.37	20.61	20.46	19.25	17.31	14.97	12.55	10.39	8.74	7.77	7.49	7.8	8.53	9.46	10.36	11	11.24	11.03	10.47	9.68	8.74	7.61	6.16	4.26	1.9	-0.77	-3.5	-6.07	-8.34	-10.33	-12.14	-13.93	-15.86	-18.08	-20.73	-23.88	-27.43	-31.03	-34.03	-35.58	-34.88	-31.47	-25.4	-17.26	-8.07	1.02	9.01	15.25	19.51	21.94	22.91	22.84	22.09	20.87	19.31	17.51	15.63	13.95	12.7	12.07	12.03
4.68	11.48	16.4	19.37	20.61	20.46	19.25	17.31	14.97	12.55	10.39	8.74	7.77	7.49	7.8	8.53	9.46	10.36	11	11.24	11.03	10.47	9.68	8.74	7.61	6.16	4.26	1.9	-0.77	-3.5	-6.07	-8.34	-10.33	-12.14	-13.93	-15.86	-18.08	-20.73	-23.88	-27.43	-31.03	-34.03	-35.58	-34.88	-31.47	-25.4	-17.26	-8.07	1.02	9.01	15.25	19.51	21.94	22.91	22.84	22.09	20.87	19.31	17.51	15.63	13.95	12.7	12.07	12.03	12.39	12.85	13.2	13.34	13.33	13.27	13.1	12.62	11.5	9.48	6.5	2.88	-0.84	-4.09	-6.49	-8.01	-8.98	-9.95	-11.4	-13.63	-16.63	-20.1	-23.58	-26.5	-28.26	-28.3	-26.17	-21.74	-15.26	-7.42	0.82	8.38	14.4	18.4	20.38	20.73	19.98	18.67	17.13	15.46	13.64	11.66	9.67	7.88	6.56	5.89	5.78	6.02	6.32	6.48	6.43	6.28	6.11	5.91	5.47	4.5	2.71	-0.01	-3.5	-7.36	-11.05	-14.11	-16.31	-17.74
12.39	12.85	13.2	13.34	13.33	13.27	13.1	12.62	11.5	9.48	6.5	2.88	-0.84	-4.09	-6.49	-8.01	-8.98	-9.95	-11.4	-13.63	-16.63	-20.1	-23.58	-26.5	-28.26	-28.3	-26.17	-21.74	-15.26	-7.42	0.82	8.38	14.4	18.4	20.38	20.73	19.98	18.67	17.13	15.46	13.64	11.66	9.67	7.88	6.56	5.89	5.78	6.02	6.32	6.48	6.43	6.28	6.11	5.91	5.47	4.5	2.71	-0.01	-3.5	-7.36	-11.05	-14.11	-16.31	-17.74	-18.8	-20.01	-21.79	-24.29	-27.28	-30.19	-32.31	-32.92	-31.55	-28.02	-22.48	-15.38	-7.42	0.61	7.84	13.55	17.28	18.94	18.81	17.42	15.33	13.01	10.8	8.9	7.41	6.41	5.87	5.66	5.65	5.72	5.82	6.03	6.47	7.16	7.99	8.7	8.93	8.41	7.01	4.71	1.69	-1.84	-5.62	-9.37	-12.83	-15.81	-18.27	-20.39	-22.43	-24.67	-27.11	-29.39	-30.73	-30.25	-27.24	-21.59	-13.85	-5.14	3.23	10.22	15.21	18.12	19.19	18.78
-18.8	-20.01	-21.79	-24.29	-27.28	-30.19	-32.31	-32.92	-31.55	-28.02	-22.48	-15.38	-7.42	0.61	7.84	13.55	17.28	18.94	18.81	17.42	15.33	13.01	10.8	8.9	7.41	6.41	5.87	5.66	5.65	5.72	5.82	6.03	6.47	7.16	7.99	8.7	8.93	8.41	7.01	4.71	1.69	-1.84	-5.62	-9.37	-12.83	-15.81	-18.27	-20.39	-22.43	-24.67	-27.11	-29.39	-30.73	-30.25	-27.24	-21.59	-13.85	-5.14	3.23	10.22	15.21	18.12	19.19	18.78	17.24	14.88	12.06	9.19	6.76	5.13	4.46	4.63	5.33	6.2	6.98	7.54	7.84	7.93	7.77	7.31	6.46	5.1	3.13	0.5	-2.73	-6.38	-10.08	-13.44	-16.16	-18.19	-19.81	-21.45	-23.55	-26.26	-29.29	-31.92	-33.18	-32.23	-28.52	-22.07	-13.49	-3.75	5.97	14.62	21.43	26.07	28.61	29.4	28.94	27.69	26.03	24.17	22.22	20.27	18.35	16.51	14.79	13.24	11.92	10.93	10.38	10.32	10.73	11.41	12.04	12.27	11.84	10.61
17.24	14.88	12.06	9.19	6.76	5.13	4.46	4.63	5.33	6.2	6.98	7.54	7.84	7.93	7.77	7.31	6.46	5.1	3.13	0.5	-2.73	-6.38	-10.08	-13.44	-16.16	-18.19	-19.81	-21.45	-23.55	-26.26	-29.29	-31.92	-33.18	-32.23	-28.52	-22.07	-13.49	-3.75	5.97	14.62	21.43	26.07	28.61	29.4	28.94	27.69	26.03	24.17	22.22	20.27	18.35	16.51	14.79	13.24	11.92	10.93	10.38	10.32	10.73	11.41	12.04	12.27	11.84	10.61	8.6	5.98	2.93	-0.31	-3.52	-6.52	-9.25	-11.8	-14.39	-17.37	-20.96	-25.15	-29.58	-33.54	-36.11	-36.47	-34.08	-28.89	-21.39	-12.46	-3.19	5.46	12.79	18.43	22.33	24.6	25.36	24.79	23.11	20.69	18.03	15.67	14.06	13.41	13.66	14.5	15.55	16.44	16.96	17.05	16.74	16.15	15.37	14.41	13.2	11.59	9.45	6.69	3.43	-0.09	-3.46	-6.34	-8.52	-10.02	-11.1	-12.16	-13.59	-15.71	-18.65	-22.28	-26.17	-29.61	-31.66	-31.44
8.6	5.98	2.93	-0.31	-3.52	-6.52	-9.25	-11.8	-14.39	-17.37	-20.96	-25.15	-29.58	-33.54	-36.11	-36.47	-34.08	-28.89	-21.39	-12.46	-3.19	5.46	12.79	18.43	22.33	24.6	25.36	24.79	23.11	20.69	18.03	15.67	14.06	13.41	13.66	14.5	15.55	16.44	16.96	17.05	16.74	16.15	15.37	14.41	13.2	11.59	9.45	6.69	3.43	-0.09	-3.46	-6.34	-8.52	-10.02	-11.1	-12.16	-13.59	-15.71	-18.65	-22.28	-26.17	-29.61	-31.66	-31.44	-28.35	-22.39	-14.17	-4.81	4.41	12.39	18.47	22.42	24.38	24.67	23.68	21.82	19.54	17.27	15.36	14	13.19	12.73	12.38	11.96	11.4	10.8	10.32	10.16	10.39	10.91	11.43	11.56	10.93	9.31	6.77	3.59	0.19	-3.07	-6	-8.59	-10.98	-13.29	-15.65	-18.15	-20.9	-23.96	-27.23	-30.3	-32.46	-32.8	-30.55	-25.4	-17.71	-8.44	1.08	9.6	16.26	20.76	23.24	24.09	23.71	22.38	20.33	17.81	15.18	12.83	11.01	9.74
-28.35	-22.39	-14.17	-4.81	4.41	12.39	18.47	22.42	24.38	24.67	23.68	21.82	19.54	17.27	15.36	14	13.19	12.73	12.38	11.96	11.4	10.8	10.32	10.16	10.39	10.91	11.43	11.56	10.93	9.31	6.77	3.59	0.19	-3.07	-6	-8.59	-10.98	-13.29	-15.65	-18.15	-20.9	-23.96	-27.23	-30.3	-32.46	-32.8	-30.55	-25.4	-17.71	-8.44	1.08	9.6	16.26	20.76	23.24	24.09	23.71	22.38	20.33	17.81	15.18	12.83	11.01	9.74	8.77	7.76	6.49	4.97	3.51	2.47	2.08	2.29	2.78	3.09	2.81	1.72	-0.17	-2.62	-5.32	-7.94	-10.28	-12.24	-13.88	-15.38	-17	-18.98	-21.51	-24.45	-27.32	-29.26	-29.26	-26.49	-20.7	-12.43	-2.86	6.56	14.62	20.62	24.46	26.44	26.92	26.2	24.5	22.02	19.1	16.15	13.55	11.55	10.14	9.19	8.52	8	7.67	7.61	7.9	8.44	8.9	8.8	7.66	5.26	1.8	-2.19	-6.06	-9.34	-11.93	-14.13	-16.36	-18.98
8.77	7.76	6.49	4.97	3.51	2.47	2.08	2.29	2.78	3.09	2.81	1.72	-0.17	-2.62	-5.32	-7.94	-10.28	-12.24	-13.88	-15.38	-17	-18.98	-21.51	-24.45	-27.32	-29.26	-29.26	-26.49	-20.7	-12.43	-2.86	6.56	14.62	20.62	24.46	26.44	26.92	26.2	24.5	22.02	19.1	16.15	13.55	11.55	10.14	9.19	8.52	8	7.67	7.61	7.9	8.44	8.9	8.8	7.66	5.26	1.8	-2.19	-6.06	-9.34	-11.93	-14.13	-16.36	-18.98	-22.05	-25.3	-28.25	-30.34	-30.95	-29.6	-25.91	-19.84	-11.83	-2.79	6.07	13.63	19.17	22.59	24.24	24.69	24.37	23.44	21.79	19.37	16.29	12.97	9.99	7.82	6.67	6.44	6.8	7.36	7.85	8.04	7.78	6.95	5.45	3.25	0.46	-2.7	-5.95	-9.02	-11.76	-14.12	-16.26	-18.4	-20.8	-23.6	-26.66	-29.45	-31.13	-30.78	-27.78	-22.1	-14.39	-5.81	2.27	8.74	13.03	15.11	15.37	14.37	12.6	10.42	8.06	5.68	3.48	1.68
-22.05	-25.3	-28.25	-30.34	-30.95	-29.6	-25.91	-19.84	-11.83	-2.79	6.07	13.63	19.17	22.59	24.24	24.69	24.37	23.44	21.79	19.37	16.29	12.97	9.99	7.82	6.67	6.44	6.8	7.36	7.85	8.04	7.78	6.95	5.45	3.25	0.46	-2.7	-5.95	-9.02	-11.76	-14.12	-16.26	-18.4	-20.8	-23.6	-26.66	-29.45	-31.13	-30.78	-27.78	-22.1	-14.39	-5.81	2.27	8.74	13.03	15.11	15.37	14.37	12.6	10.42	8.06	5.68	3.48	1.68	0.44	-0.19	-0.28	-0.03	0.35	0.68	0.88	0.88	0.68	0.21	-0.59	-1.82	-3.53	-5.7	-8.22	-10.91	-13.58	-16.13	-18.58	-21.07	-23.72	-26.47	-28.93	-30.41	-30.1	-27.35	-21.99	-14.47	-5.76	2.87	10.29	15.78	19.15	20.7	20.93	20.29	19.04	17.29	15.08	12.56	9.97	7.66	5.88	4.76	4.24	4.19	4.41	4.8	5.25	5.65	5.83	5.53	4.54	2.75	0.23	-2.75	-5.93	-9.13	-12.43	-16.04	-20.19	-24.9	-29.77	-34.06
0.44	-0.19	-0.28	-0.03	0.35	0.68	0.88	0.88	0.68	0.21	-0.59	-1.82	-3.53	-5.7	-8.22	-10.91	-13.58	-16.13	-18.58	-21.07	-23.72	-26.47	-28.93	-30.41	-30.1	-27.35	-21.99	-14.47	-5.76	2.87	10.29	15.78	19.15	20.7	20.93	20.29	19.04	17.29	15.08	12.56	9.97	7.66	5.88	4.76	4.24	4.19	4.41	4.8	5.25	5.65	5.83	5.53	4.54	2.75	0.23	-2.75	-5.93	-9.13	-12.43	-16.04	-20.19	-24.9	-29.77	-34.06	-36.83	-37.26	-34.89	-29.76	-22.35	-13.46	-4.06	4.88	12.46	18.03	21.24	22.21	21.4	19.54	17.41	15.56	14.21	13.26	12.47	11.6	10.62	9.65	8.85	8.34	8.01	7.71	7.23	6.45	5.42	4.24	2.99	1.67	0.18	-1.61	-3.73	-6.1	-8.62	-11.22	-14.04	-17.33	-21.27	-25.74	-30.17	-33.55	-34.79	-33.07	-28.17	-20.55	-11.28	-1.66	7.07	14.02	18.75	21.25	21.81	20.9	19.06	16.76	14.42	12.34	10.69	9.58	8.99	8.86
-36.83	-37.26	-34.89	-29.76	-22.35	-13.46	-4.06	4.88	12.46	18.03	21.24	22.21	21.4	19.54	17.41	15.56	14.21	13.26	12.47	11.6	10.62	9.65	8.85	8.34	8.01	7.71	7.23	6.45	5.42	4.24	2.99	1.67	0.18	-1.61	-3.73	-6.1	-8.62	-11.22	-14.04	-17.33	-21.27	-25.74	-30.17	-33.55	-34.79	-33.07	-28.17	-20.55	-11.28	-1.66	7.07	14.02	18.75	21.25	21.81	20.9	19.06	16.76	14.42	12.34	10.69	9.58	8.99	8.86	9.06	9.38	9.68	9.9	10.01	10.02	9.88	9.45	8.55	7.02	4.84	2.15	-0.79	-3.66	-6.27	-8.62	-10.92	-13.46	-16.49	-20	-23.62	-26.67	-28.28	-27.69	-24.47	-18.72	-11.07	-2.5	5.95	13.37	19.19	23.17	25.41	26.13	25.66	24.29	22.33	20.08	17.8	15.79	14.21	13.14	12.52	12.21	12.06	11.93	11.77	11.56	11.29	10.95	10.51	9.93	9.13	7.99	6.4	4.26	1.54	-1.59	-4.85	-7.9	-10.48	-12.53	-14.17	-15.7
9.06	9.38	9.68	9.9	10.01	10.02	9.88	9.45	8.55	7.02	4.84	2.15	-0.79	-3.66	-6.27	-8.62	-10.92	-13.46	-16.49	-20	-23.62	-26.67	-28.28	-27.69	-24.47	-18.72	-11.07	-2.5	5.95	13.37	19.19	23.17	25.41	26.13	25.66	24.29	22.33	20.08	17.8	15.79	14.21	13.14	12.52	12.21	12.06	11.93	11.77	11.56	11.29	10.95	10.51	9.93	9.13	7.99	6.4	4.26	1.54	-1.59	-4.85	-7.9	-10.48	-12.53	-14.17	-15.7	-17.41	-19.47	-21.84	-24.25	-26.21	-27.08	-26.22	-23.18	-17.83	-10.52	-1.99	6.74	14.66	21.05	25.53	28.11	29.04	28.62	27.21	25.1	22.62	20.12	17.91	16.28	15.34	15.13	15.47	16.13	16.84	17.38	17.62	17.53	17.17	16.56	15.7	14.5	12.87	10.85	8.61	6.42	4.55	3.05	1.76	0.33	-1.59	-4.18	-7.29	-10.52	-13.41	-15.63	-17.15	-18.23	-19.28	-20.74	-22.88	-25.73	-29.08	-32.42	-35.07	-36.25	-35.26	-31.7	-25.65	-17.69
-17.41	-19.47	-21.84	-24.25	-26.21	-27.08	-26.22	-23.18	-17.83	-10.52	-1.99	6.74	14.66	21.05	25.53	28.11	29.04	28.62	27.21	25.1	22.62	20.12	17.91	16.28	15.34	15.13	15.47	16.13	16.84	17.38	17.62	17.53	17.17	16.56	15.7	14.5	12.87	10.85	8.61	6.42	4.55	3.05	1.76	0.33	-1.59	-4.18	-7.29	-10.52	-13.41	-15.63	-17.15	-18.23	-19.28	-20.74	-22.88	-25.73	-29.08	-32.42	-35.07	-36.25	-35.26	-31.7	-25.65	-17.69	-8.81	-0.14	7.34	12.98	16.56	18.26	18.44	17.58	16.09	14.28	12.38	10.52	8.87	7.59	6.86	6.8	7.38	8.43	9.65	10.76	11.58	12.07	12.28	12.24	11.91	11.2	9.98	8.22	5.99	3.49	0.91	-1.63	-4.13	-6.64	-9.17	-11.61	-13.77	-15.45	-16.63	-17.52	-18.54	-20.09	-22.32	-25	-27.41	-28.66	-27.93	-24.77	-19.29	-12.15	-4.32	3.2	9.59	14.4	17.55	19.23	19.75	19.42	18.49	17.13	15.51	13.75	12.03	10.54
-8.81	-0.14	7.34	12.98	16.56	18.26	18.44	17.58	16.09	14.28	12.38	10.52	8.87	7.59	6.86	6.8	7.38	8.43	9.65	10.76	11.58	12.07	12.28	12.24	11.91	11.2	9.98	8.22	5.99	3.49	0.91	-1.63	-4.13	-6.64	-9.17	-11.61	-13.77	-15.45	-16.63	-17.52	-18.54	-20.09	-22.32	-25	-27.41	-28.66	-27.93	-24.77	-19.29	-12.15	-4.32	3.2	9.59	14.4	17.55	19.23	19.75	19.42	18.49	17.13	15.51	13.75	12.03	10.54	9.43	8.81	8.71	9.04	9.66	10.36	10.94	11.21	11.07	10.5	9.57	8.38	7.01	5.48	3.75	1.7	-0.71	-3.44	-6.32	-9.1	-11.56	-13.53	-15.03	-16.2	-17.33	-18.72	-20.61	-23.02	-25.72	-28.19	-29.7	-29.51	-27.11	-22.37	-15.68	-7.79	0.29	7.61	13.45	17.49	19.76	20.51	20.12	18.92	17.17	15.07	12.84	10.68	8.84	7.49	6.72	6.53	6.78	7.31	7.92	8.45	8.77	8.79	8.46	7.73	6.62	5.16	3.42	1.51
9.43	8.81	8.71	9.04	9.66	10.36	10.94	11.21	11.07	10.5	9.57	8.38	7.01	5.48	3.75	1.7	-0.71	-3.44	-6.32	-9.1	-11.56	-13.53	-15.03	-16.2	-17.33	-18.72	-20.61	-23.02	-25.72	-28.19	-29.7	-29.51	-27.11	-22.37	-15.68	-7.79	0.29	7.61	13.45	17.49	19.76	20.51	20.12	18.92	17.17	15.07	12.84	10.68	8.84	7.49	6.72	6.53	6.78	7.31	7.92	8.45	8.77	8.79	8.46	7.73	6.62	5.16	3.42	1.51	-0.48	-2.46	-4.37	-6.15	-7.8	-9.34	-10.86	-12.5	-14.41	-16.74	-19.54	-22.74	-26.09	-29.13	-31.28	-31.93	-30.61	-27.12	-21.6	-14.6	-6.94	0.49	6.88	11.73	14.86	16.37	16.54	15.71	14.15	12.07	9.68	7.18	4.84	2.95	1.75	1.36	1.71	2.64	3.89	5.24	6.5	7.55	8.29	8.63	8.44	7.56	5.92	3.52	0.49	-2.87	-6.2	-9.11	-11.38	-12.98	-14.07	-15	-16.13	-17.68	-19.72	-22.07	-24.38	-26.16	-26.89	-26.08
-0.48	-2.46	-4.37	-6.15	-7.8	-9.34	-10.86	-12.5	-14.41	-16.74	-19.54	-22.74	-26.09	-29.13	-31.28	-31.93	-30.61	-27.12	-21.6	-14.6	-6.94	0.49	6.88	11.73	14.86	16.37	16.54	15.71	14.15	12.07	9.68	7.18	4.84	2.95	1.75	1.36	1.71	2.64	3.89	5.24	6.5	7.55	8.29	8.63	8.44	7.56	5.92	3.52	0.49	-2.87	-6.2	-9.11	-11.38	-12.98	-14.07	-15	-16.13	-17.68	-19.72	-22.07	-24.38	-26.16	-26.89	-26.08	-23.41	-18.92	-12.99	-6.37	0.07	5.58	9.76	12.57	14.2	14.89	14.78	13.85	12.09	9.67	7.01	4.66	3.13	2.64	3.05	3.94	4.84	5.43	5.65	5.63	5.58	5.6	5.57	5.24	4.32	2.65	0.32	-2.35	-4.91	-7.04	-8.66	-9.96	-11.35	-13.18	-15.68	-18.77	-22.17	-25.42	-27.93	-29.09	-28.35	-25.37	-20.17	-13.19	-5.24	2.69	9.7	15.16	18.79	20.6	20.83	19.79	17.88	15.49	12.96	10.55	8.43	6.66	5.27	4.26
-23.41	-18.92	-12.99	-6.37	0.07	5.58	9.76	12.57	14.2	14.89	14.78	13.85	12.09	9.67	7.01	4.66	3.13	2.64	3.05	3.94	4.84	5.43	5.65	5.63	5.58	5.6	5.57	5.24	4.32	2.65	0.32	-2.35	-4.91	-7.04	-8.66	-9.96	-11.35	-13.18	-15.68	-18.77	-22.17	-25.42	-27.93	-29.09	-28.35	-25.37	-20.17	-13.19	-5.24	2.69	9.7	15.16	18.79	20.6	20.83	19.79	17.88	15.49	12.96	10.55	8.43	6.66	5.27	4.26	3.66	3.44	3.58	4.01	4.64	5.4	6.17	6.73	6.8	6.11	4.42	1.71	-1.81	-5.68	-9.36	-12.42	-14.7	-16.44	-18.15	-20.39	-23.45	-27.09	-30.51	-32.62	-32.37	-29.23	-23.3	-15.33	-6.42	2.32	9.97	15.96	20.06	22.29	22.84	22.03	20.22	17.77	15.07	12.47	10.29	8.69	7.72	7.28	7.19	7.34	7.65	8.16	8.85	9.62	10.21	10.29	9.57	7.9	5.4	2.31	-1.04	-4.36	-7.51	-10.45	-13.24	-16.03	-18.98	-22.24
3.66	3.44	3.58	4.01	4.64	5.4	6.17	6.73	6.8	6.11	4.42	1.71	-1.81	-5.68	-9.36	-12.42	-14.7	-16.44	-18.15	-20.39	-23.45	-27.09	-30.51	-32.62	-32.37	-29.23	-23.3	-15.33	-6.42	2.32	9.97	15.96	20.06	22.29	22.84	22.03	20.22	17.77	15.07	12.47	10.29	8.69	7.72	7.28	7.19	7.34	7.65	8.16	8.85	9.62	10.21	10.29	9.57	7.9	5.4	2.31	-1.04	-4.36	-7.51	-10.45	-13.24	-16.03	-18.98	-22.24	-25.86	-29.68	-33.23	-35.72	-36.3	-34.22	-29.27	-21.85	-12.88	-3.55	5.09	12.32	17.81	21.52	23.53	23.94	22.93	20.78	17.91	14.81	11.9	9.48	7.69	6.57	6.09	6.2	6.79	7.7	8.7	9.54	10.02	9.95	9.23	7.8	5.71	3.09	0.17	-2.75	-5.41	-7.67	-9.61	-11.49	-13.71	-16.65	-20.53	-25.23	-30.17	-34.38	-36.68	-36.04	-31.92	-24.56	-14.89	-4.32	5.71	14.1	20.3	24.32	26.43	27	26.33	24.64	22.21	19.43
-25.86	-29.68	-33.23	-35.72	-36.3	-34.22	-29.27	-21.85	-12.88	-3.55	5.09	12.32	17.81	21.52	23.53	23.94	22.93	20.78	17.91	14.81	11.9	9.48	7.69	6.57	6.09	6.2	6.79	7.7	8.7	9.54	10.02	9.95	9.23	7.8	5.71	3.09	0.17	-2.75	-5.41	-7.67	-9.61	-11.49	-13.71	-16.65	-20.53	-25.23	-30.17	-34.38	-36.68	-36.04	-31.92	-24.56	-14.89	-4.32	5.71	14.1	20.3	24.32	26.43	27	26.33	24.64	22.21	19.43	16.81	14.78	13.6	13.24	13.5	14.11	14.87	15.71	16.59	17.4	17.93	17.92	17.19	15.64	13.31	10.29	6.72	2.81	-1.21	-5.04	-8.4	-11.21	-13.57	-15.79	-18.3	-21.41	-25.22	-29.41	-33.3	-35.97	-36.47	-34.13	-28.75	-20.78	-11.2	-1.26	7.82	15.2	20.5	23.78	25.38	25.74	25.29	24.32	23.04	21.6	20.18	18.94	18.03	17.57	17.57	17.94	18.49	19.01	19.37	19.52	19.55	19.52	19.43	19.13	18.32	16.72	14.19	10.81
16.81	14.78	13.6	13.24	13.5	14.11	14.87	15.71	16.59	17.4	17.93	17.92	17.19	15.64	13.31	10.29	6.72	2.81	-1.21	-5.04	-8.4	-11.21	-13.57	-15.79	-18.3	-21.41	-25.22	-29.41	-33.3	-35.97	-36.47	-34.13	-28.75	-20.78	-11.2	-1.26	7.82	15.2	20.5	23.78	25.38	25.74	25.29	24.32	23.04	21.6	20.18	18.94	18.03	17.57	17.57	17.94	18.49	19.01	19.37	19.52	19.55	19.52	19.43	19.13	18.32	16.72	14.19	10.81	6.84	2.62	-1.5	-5.29	-8.58	-11.3	-13.42	-15.03	-16.41	-17.93	-20.04	-22.98	-26.66	-30.56	-33.84	-35.56	-34.91	-31.52	-25.52	-17.56	-8.6	0.29	8.15	14.29	18.43	20.6	21.17	20.62	19.5	18.24	17.07	16.04	15.07	14.1	13.17	12.44	12.11	12.31	12.98	13.91	14.78	15.34	15.44	15.05	14.22	13.01	11.42	9.46	7.18	4.69	2.12	-0.39	-2.77	-4.96	-7	-8.93	-10.88	-12.95	-15.21	-17.68	-20.34	-23.17	-26.13	-29.1
6.84	2.62	-1.5	-5.29	-8.58	-11.3	-13.42	-15.03	-16.41	-17.93	-20.04	-22.98	-26.66	-30.56	-33.84	-35.56	-34.91	-31.52	-25.52	-17.56	-8.6	0.29	8.15	14.29	18.43	20.6	21.17	20.62	19.5	18.24	17.07	16.04	15.07	14.1	13.17	12.44	12.11	12.31	12.98	13.91	14.78	15.34	15.44	15.05	14.22	13.01	11.42	9.46	7.18	4.69	2.12	-0.39	-2.77	-4.96	-7	-8.93	-10.88	-12.95	-15.21	-17.68	-20.34	-23.17	-26.13	-29.1	-31.8	-33.68	-33.96	-31.88	-27.03	-19.57	-10.37	-0.74	7.97	14.83	19.51	22.22	23.45	23.68	23.16	22.01	20.26	18.1	15.86	13.97	12.77	12.43	12.84	13.72	14.74	15.62	16.22	16.51	16.48	16.15	15.52	14.54	13.17	11.39	9.19	6.6	3.69	0.55	-2.65	-5.71	-8.45	-10.79	-12.77	-14.57	-16.53	-18.96	-22.12	-25.98	-30.16	-33.9	-36.17	-35.99	-32.76	-26.5	-17.91	-8.18	1.34	9.55	15.79	19.95	22.28	23.22	23.19	22.48
-31.8	-33.68	-33.96	-31.88	-27.03	-19.57	-10.37	-0.74	7.97	14.83	19.51	22.22	23.45	23.68	23.16	22.01	20.26	18.1	15.86	13.97	12.77	12.43	12.84	13.72	14.74	15.62	16.22	16.51	16.48	16.15	15.52	14.54	13.17	11.39	9.19	6.6	3.69	0.55	-2.65	-5.71	-8.45	-10.79	-12.77	-14.57	-16.53	-18.96	-22.12	-25.98	-30.16	-33.9	-36.17	-35.99	-32.76	-26.5	-17.91	-8.18	1.34	9.55	15.79	19.95	22.28	23.22	23.19	22.48	21.29	19.76	18.06	16.41	15.03	14.02	13.39	13.06	12.96	13.08	13.48	14.17	15.02	15.75	16.03	15.6	14.4	12.62	10.54	8.42	6.35	4.3	2.1	-0.33	-2.98	-5.7	-8.29	-10.57	-12.44	-13.99	-15.37	-16.85	-18.7	-21.16	-24.29	-27.96	-31.67	-34.64	-35.87	-34.48	-30.04	-22.79	-13.69	-4.14	4.5	11.26	15.81	18.32	19.29	19.19	18.44	17.27	15.83	14.22	12.56	10.91	9.34	7.91	6.73	5.9	5.53	5.69	6.34	7.37
21.29	19.76	18.06	16.41	15.03	14.02	13.39	13.06	12.96	13.08	13.48	14.17	15.02	15.75	16.03	15.6	14.4	12.62	10.54	8.42	6.35	4.3	2.1	-0.33	-2.98	-5.7	-8.29	-10.57	-12.44	-13.99	-15.37	-16.85	-18.7	-21.16	-24.29	-27.96	-31.67	-34.64	-35.87	-34.48	-30.04	-22.79	-13.69	-4.14	4.5	11.26	15.81	18.32	19.29	19.19	18.44	17.27	15.83	14.22	12.56	10.91	9.34	7.91	6.73	5.9	5.53	5.69	6.34	7.37	8.55	9.59	10.18	10.04	9.06	7.29	4.98	2.43	-0.07	-2.43	-4.66	-6.85	-9.07	-11.3	-13.42	-15.34	-17.05	-18.65	-20.33	-22.32	-24.79	-27.74	-30.91	-33.74	-35.46	-35.18	-32.28	-26.61	-18.7	-9.62	-0.69	6.97	12.68	16.38	18.39	19.17	19.07	18.26	16.77	14.68	12.26	9.89	7.97	6.77	6.33	6.45	6.81	7.2	7.54	7.88	8.33	8.92	9.49	9.73	9.34	8.1	6.01	3.28	0.21	-2.86	-5.7	-8.19	-10.31	-12.15
8.55	9.59	10.18	10.04	9.06	7.29	4.98	2.43	-0.07	-2.43	-4.66	-6.85	-9.07	-11.3	-13.42	-15.34	-17.05	-18.65	-20.33	-22.32	-24.79	-27.74	-30.91	-33.74	-35.46	-35.18	-32.28	-26.61	-18.7	-9.62	-0.69	6.97	12.68	16.38	18.39	19.17	19.07	18.26	16.77	14.68	12.26	9.89	7.97	6.77	6.33	6.45	6.81	7.2	7.54	7.88	8.33	8.92	9.49	9.73	9.34	8.1	6.01	3.28	0.21	-2.86	-5.7	-8.19	-10.31	-12.15	-13.83	-15.52	-17.43	-19.76	-22.64	-26.01	-29.48	-32.42	-33.94	-33.24	-29.88	-23.99	-16.27	-7.82	0.21	7.03	12.22	15.74	17.76	18.44	17.95	16.48	14.36	12.01	9.85	8.19	7.1	6.44	5.98	5.47	4.83	4.09	3.39	2.87	2.6	2.5	2.37	1.91	0.81	-1.09	-3.72	-6.74	-9.66	-12	-13.49	-14.21	-14.52	-14.92	-15.86	-17.62	-20.27	-23.56	-26.99	-29.74	-30.82	-29.35	-24.87	-17.63	-8.55	0.99	9.58	16.22	20.54	22.71
-13.83	-15.52	-17.43	-19.76	-22.64	-26.01	-29.48	-32.42	-33.94	-33.24	-29.88	-23.99	-16.27	-7.82	0.21	7.03	12.22	15.74	17.76	18.44	17.95	16.48	14.36	12.01	9.85	8.19	7.1	6.44	5.98	5.47	4.83	4.09	3.39	2.87	2.6	2.5	2.37	1.91	0.81	-1.09	-3.72	-6.74	-9.66	-12	-13.49	-14.21	-14.52	-14.92	-15.86	-17.62	-20.27	-23.56	-26.99	-29.74	-30.82	-29.35	-24.87	-17.63	-8.55	0.99	9.58	16.22	20.54	22.71	23.28	22.84	21.81	20.44	18.79	16.87	14.71	12.48	10.39	8.71	7.58	7.03	6.93	7.04	7.13	6.98	6.42	5.33	3.66	1.47	-1.09	-3.79	-6.4	-8.8	-11.07	-13.43	-16.19	-19.5	-23.21	-26.76	-29.26	-29.75	-27.48	-22.26	-14.59	-5.54	3.57	11.54	17.64	21.65	23.75	24.26	23.54	21.88	19.55	16.87	14.22	11.92	10.17	8.98	8.24	7.79	7.49	7.25	7.03	6.78	6.41	5.81	4.9	3.55	1.71	-0.65	-3.55	-6.98
23.28	22.84	21.81	20.44	18.79	16.87	14.71	12.48	10.39	8.71	7.58	7.03	6.93	7.04	7.13	6.98	6.42	5.33	3.66	1.47	-1.09	-3.79	-6.4	-8.8	-11.07	-13.43	-16.19	-19.5	-23.21	-26.76	-29.26	-29.75	-27.48	-22.26	-14.59	-5.54	3.57	11.54	17.64	21.65	23.75	24.26	23.54	21.88	19.55	16.87	14.22	11.92	10.17	8.98	8.24	7.79	7.49	7.25	7.03	6.78	6.41	5.81	4.9	3.55	1.71	-0.65	-3.55	-6.98	-10.9	-15.23	-19.77	-24.12	-27.67	-29.64	-29.31	-26.28	-20.66	-13.07	-4.55	3.74	10.9	16.38	20.1	22.24	23.1	22.89	21.75	19.8	17.23	14.37	11.64	9.42	7.95	7.19	7	7.06	7.15	7.11	6.89	6.44	5.7	4.54	2.81	0.45	-2.53	-5.95	-9.62	-13.44	-17.4	-21.6	-26	-30.3	-33.78	-35.53	-34.72	-30.96	-24.52	-16.25	-7.24	1.43	8.99	15.01	19.28	21.76	22.51	21.75	19.84	17.27	14.51	11.94	9.77	8.04
-10.9	-15.23	-19.77	-24.12	-27.67	-29.64	-29.31	-26.28	-20.66	-13.07	-4.55	3.74	10.9	16.38	20.1	22.24	23.1	22.89	21.75	19.8	17.23	14.37	11.64	9.42	7.95	7.19	7	7.06	7.15	7.11	6.89	6.44	5.7	4.54	2.81	0.45	-2.53	-5.95	-9.62	-13.44	-17.4	-21.6	-26	-30.3	-33.78	-35.53	-34.72	-30.96	-24.52	-16.25	-7.24	1.43	8.99	15.01	19.28	21.76	22.51	21.75	19.84	17.27	14.51	11.94	9.77	8.04	6.75	5.87	5.38	5.28	5.54	6.05	6.6	6.95	6.81	5.95	4.25	1.8	-1.12	-4.2	-7.14	-9.92	-12.72	-15.89	-19.71	-24.19	-28.93	-33.18	-35.97	-36.44	-34.03	-28.7	-20.9	-11.53	-1.72	7.42	14.99	20.47	23.75	25.07	24.9	23.75	22.01	19.97	17.76	15.49	13.26	11.24	9.6	8.49	7.95	7.95	8.36	9.04	9.78	10.34	10.46	9.86	8.36	5.94	2.8	-0.72	-4.21	-7.37	-10.17	-12.82	-15.71	-19.18	-23.31	-27.75
6.75	5.87	5.38	5.28	5.54	6.05	6.6	6.95	6.81	5.95	4.25	1.8	-1.12	-4.2	-7.14	-9.92	-12.72	-15.89	-19.71	-24.19	-28.93	-33.18	-35.97	-36.44	-34.03	-28.7	-20.9	-11.53	-1.72	7.42	14.99	20.47	23.75	25.07	24.9	23.75	22.01	19.97	17.76	15.49	13.26	11.24	9.6	8.49	7.95	7.95	8.36	9.04	9.78	10.34	10.46	9.86	8.36	5.94	2.8	-0.72	-4.21	-7.37	-10.17	-12.82	-15.71	-19.18	-23.31	-27.75	-31.72	-34.19	-34.16	-31.06	-24.89	-16.3	-6.39	3.53	12.33	19.19	23.78	26.22	26.93	26.46	25.32	23.82	22.16	20.42	18.76	17.41	16.59	16.41	16.76	17.34	17.84	18.1	18.16	18.19	18.32	18.5	18.46	17.79	16.17	13.47	9.88	5.83	1.84	-1.67	-4.51	-6.76	-8.74	-10.81	-13.35	-16.52	-20.34	-24.53	-28.63	-31.98	-33.81	-33.38	-30.25	-24.4	-16.38	-7.16	2.08	10.27	16.68	21.06	23.56	24.58	24.59	23.96	22.98	21.84
-31.72	-34.19	-34.16	-31.06	-24.89	-16.3	-6.39	3.53	12.33	19.19	23.78	26.22	26.93	26.46	25.32	23.82	22.16	20.42	18.76	17.41	16.59	16.41	16.76	17.34	17.84	18.1	18.16	18.19	18.32	18.5	18.46	17.79	16.17	13.47	9.88	5.83	1.84	-1.67	-4.51	-6.76	-8.74	-10.81	-13.35	-16.52	-20.34	-24.53	-28.63	-31.98	-33.81	-33.38	-30.25	-24.4	-16.38	-7.16	2.08	10.27	16.68	21.06	23.56	24.58	24.59	23.96	22.98	21.84	20.69	19.68	18.89	18.4	18.21	18.24	18.38	18.51	18.54	18.42	18.16	17.78	17.24	16.45	15.24	13.47	11.11	8.31	5.36	2.62	0.29	-1.61	-3.32	-5.11	-7.19	-9.57	-12.07	-14.46	-16.57	-18.4	-20.14	-22.13	-24.64	-27.82	-31.42	-34.85	-37.23	-37.59	-35.2	-29.82	-21.82	-12.18	-2.19	6.89	14.09	18.91	21.34	21.69	20.43	18.02	14.88	11.39	7.92	4.87	2.63	1.43	1.28	1.95	3.05	4.23	5.27	6.15	6.93	7.67
20.69	19.68	18.89	18.4	18.21	18.24	18.38	18.51	18.54	18.42	18.16	17.78	17.24	16.45	15.24	13.47	11.11	8.31	5.36	2.62	0.29	-1.61	-3.32	-5.11	-7.19	-9.57	-12.07	-14.46	-16.57	-18.4	-20.14	-22.13	-24.64	-27.82	-31.42	-34.85	-37.23	-37.59	-35.2	-29.82	-21.82	-12.18	-2.19	6.89	14.09	18.91	21.34	21.69	20.43	18.02	14.88	11.39	7.92	4.87	2.63	1.43	1.28	1.95	3.05	4.23	5.27	6.15	6.93	7.67	8.29	8.63	8.47	7.65	6.15	4.09	1.7	-0.77	-3.09	-5.13	-6.84	-8.32	-9.74	-11.38	-13.54	-16.39	-19.96	-24	-28	-31.22	-32.87	-32.23	-28.94	-23.1	-15.29	-6.46	2.26	9.9	15.81	19.78	21.93	22.59	22.09	20.74	18.77	16.43	14.01	11.89	10.38	9.65	9.73	10.41	11.43	12.47	13.29	13.71	13.64	13.08	12.11	10.87	9.48	8.02	6.45	4.73	2.78	0.6	-1.77	-4.22	-6.59	-8.83	-10.86	-12.72	-14.55	-16.6
8.29	8.63	8.47	7.65	6.15	4.09	1.7	-0.77	-3.09	-5.13	-6.84	-8.32	-9.74	-11.38	-13.54	-16.39	-19.96	-24	-28	-31.22	-32.87	-32.23	-28.94	-23.1	-15.29	-6.46	2.26	9.9	15.81	19.78	21.93	22.59	22.09	20.74	18.77	16.43	14.01	11.89	10.38	9.65	9.73	10.41	11.43	12.47	13.29	13.71	13.64	13.08	12.11	10.87	9.48	8.02	6.45	4.73	2.78	0.6	-1.77	-4.22	-6.59	-8.83	-10.86	-12.72	-14.55	-16.6	-19.09	-22.15	-25.58	-28.78	-30.87	-30.89	-28.28	-23.01	-15.69	-7.3	1.04	8.44	14.38	18.62	21.15	22.08	21.62	20.07	17.86	15.45	13.2	11.32	9.9	8.94	8.45	8.42	8.85	9.64	10.63	11.59	12.3	12.56	12.33	11.6	10.44	8.94	7.13	4.99	2.45	-0.51	-3.85	-7.35	-10.72	-13.66	-15.96	-17.63	-18.87	-20.04	-21.49	-23.49	-26.09	-29.09	-31.99	-34.09	-34.57	-32.76	-28.32	-21.43	-12.83	-3.6	5.07	12.17	17.19	20.08
-19.09	-22.15	-25.58	-28.78	-30.87	-30.89	-28.28	-23.01	-15.69	-7.3	1.04	8.44	14.38	18.62	21.15	22.08	21.62	20.07	17.86	15.45	13.2	11.32	9.9	8.94	8.45	8.42	8.85	9.64	10.63	11.59	12.3	12.56	12.33	11.6	10.44	8.94	7.13	4.99	2.45	-0.51	-3.85	-7.35	-10.72	-13.66	-15.96	-17.63	-18.87	-20.04	-21.49	-23.49	-26.09	-29.09	-31.99	-34.09	-34.57	-32.76	-28.32	-21.43	-12.83	-3.6	5.07	12.17	17.19	20.08	21.19	21.02	19.97	18.3	16.13	13.61	11.03	8.78	7.24	6.58	6.72	7.33	8.05	8.63	9.01	9.26	9.43	9.47	9.27	8.66	7.55	5.9	3.76	1.21	-1.66	-4.72	-7.79	-10.64	-13.07	-14.97	-16.37	-17.46	-18.57	-20.04	-22.15	-24.99	-28.33	-31.68	-34.24	-35.1	-33.53	-29.14	-22.13	-13.28	-3.74	5.2	12.5	17.57	20.33	21.1	20.4	18.76	16.62	14.27	11.96	9.85	8.12	6.87	6.14	5.88	5.95	6.21	6.52	6.79
21.19	21.02	19.97	18.3	16.13	13.61	11.03	8.78	7.24	6.58	6.72	7.33	8.05	8.63	9.01	9.26	9.43	9.47	9.27	8.66	7.55	5.9	3.76	1.21	-1.66	-4.72	-7.79	-10.64	-13.07	-14.97	-16.37	-17.46	-18.57	-20.04	-22.15	-24.99	-28.33	-31.68	-34.24	-35.1	-33.53	-29.14	-22.13	-13.28	-3.74	5.2	12.5	17.57	20.33	21.1	20.4	18.76	16.62	14.27	11.96	9.85	8.12	6.87	6.14	5.88	5.95	6.21	6.52	6.79	7.04	7.29	7.54	7.64	7.29	6.16	4.02	0.9	-2.82	-6.56	-9.77	-12.15	-13.83	-15.26	-17.05	-19.7	-23.36	-27.77	-32.19	-35.6	-36.92	-35.3	-30.38	-22.49	-12.58	-1.98	7.96	16.22	22.29	26.14	28.05	28.41	27.52	25.68	23.16	20.29	17.45	15.02	13.26	12.28	11.98	12.12	12.42	12.65	12.67	12.49	12.16	11.71	11.08	10.11	8.62	6.5	3.81	0.77	-2.3	-5.13	-7.58	-9.71	-11.71	-13.84	-16.33	-19.32	-22.8	-26.54
7.04	7.29	7.54	7.64	7.29	6.16	4.02	0.9	-2.82	-6.56	-9.77	-12.15	-13.83	-15.26	-17.05	-19.7	-23.36	-27.77	-32.19	-35.6	-36.92	-35.3	-30.38	-22.49	-12.58	-1.98	7.96	16.22	22.29	26.14	28.05	28.41	27.52	25.68	23.16	20.29	17.45	15.02	13.26	12.28	11.98	12.12	12.42	12.65	12.67	12.49	12.16	11.71	11.08	10.11	8.62	6.5	3.81	0.77	-2.3	-5.13	-7.58	-9.71	-11.71	-13.84	-16.33	-19.32	-22.8	-26.54	-30.07	-32.66	-33.47	-31.75	-27.17	-19.99	-11.13	-1.89	6.42	12.91	17.28	19.77	20.85	20.96	20.31	18.98	17.01	14.63	12.2	10.13	8.72	7.99	7.78	7.83	7.91	7.93	7.89	7.82	7.73	7.56	7.16	6.34	4.87	2.59	-0.53	-4.28	-8.24	-11.91	-14.87	-16.99	-18.49	-19.86	-21.66	-24.22	-27.54	-31.21	-34.54	-36.71	-36.99	-34.9	-30.3	-23.46	-15.08	-6.09	2.47	9.68	14.96	18.15	19.44	19.25	18.04	16.19	14	11.7
-30.07	-32.66	-33.47	-31.75	-27.17	-19.99	-11.13	-1.89	6.42	12.91	17.28	19.77	20.85	20.96	20.31	18.98	17.01	14.63	12.2	10.13	8.72	7.99	7.78	7.83	7.91	7.93	7.89	7.82	7.73	7.56	7.16	6.34	4.87	2.59	-0.53	-4.28	-8.24	-11.91	-14.87	-16.99	-18.49	-19.86	-21.66	-24.22	-27.54	-31.21	-34.54	-36.71	-36.99	-34.9	-30.3	-23.46	-15.08	-6.09	2.47	9.68	14.96	18.15	19.44	19.25	18.04	16.19	14	11.7	9.5	7.62	6.24	5.43	5.16	5.27	5.61	6.05	6.53	7.01	7.36	7.39	6.88	5.65	3.68	1.13	-1.73	-4.56	-7.16	-9.47	-11.62	-13.91	-16.64	-19.98	-23.86	-27.81	-31.05	-32.61	-31.62	-27.61	-20.78	-11.92	-2.31	6.7	14.07	19.24	22.21	23.36	23.16	22.07	20.4	18.39	16.28	14.33	12.76	11.68	11.03	10.67	10.4	10.12	9.82	9.61	9.62	9.87	10.2	10.26	9.63	7.96	5.19	1.58	-2.31	-5.86	-8.66	-10.7
9.5	7.62	6.24	5.43	5.16	5.27	5.61	6.05	6.53	7.01	7.36	7.39	6.88	5.65	3.68	1.13	-1.73	-4.56	-7.16	-9.47	-11.62	-13.91	-16.64	-19.98	-23.86	-27.81	-31.05	-32.61	-31.62	-27.61	-20.78	-11.92	-2.31	6.7	14.07	19.24	22.21	23.36	23.16	22.07	20.4	18.39	16.28	14.33	12.76	11.68	11.03	10.67	10.4	10.12	9.82	9.61	9.62	9.87	10.2	10.26	9.63	7.96	5.19	1.58	-2.31	-5.86	-8.66	-10.7	-12.31	-14.06	-16.45	-19.66	-23.52	-27.42	-30.54	-32	-31.11	-27.53	-21.43	-13.41	-4.43	4.45	12.25	18.32	22.4	24.64	25.4	25.14	24.23	22.88	21.19	19.2	17.04	14.93	13.19	12.01	11.49	11.52	11.84	12.21	12.43	12.42	12.13	11.52	10.48	8.88	6.6	3.67	0.28	-3.22	-6.52	-9.37	-11.75	-13.83	-15.89	-18.19	-20.89	-24.05	-27.57	-31.25	-34.7	-37.34	-38.4	-37.14	-33.09	-26.27	-17.33	-7.36	2.36	10.72	17.05	21.16
-12.31	-14.06	-16.45	-19.66	-23.52	-27.42	-30.54	-32	-31.11	-27.53	-21.43	-13.41	-4.43	4.45	12.25	18.32	22.4	24.64	25.4	25.14	24.23	22.88	21.19	19.2	17.04	14.93	13.19	12.01	11.49	11.52	11.84	12.21	12.43	12.42	12.13	11.52	10.48	8.88	6.6	3.67	0.28	-3.22	-6.52	-9.37	-11.75	-13.83	-15.89	-18.19	-20.89	-24.05	-27.57	-31.25	-34.7	-37.34	-38.4	-37.14	-33.09	-26.27	-17.33	-7.36	2.36	10.72	17.05	21.16	23.27	23.84	23.31	22.03	20.22	18.04	15.68	13.41	11.56	10.43	10.17	10.65	11.56	12.51	13.15	13.37	13.2	12.81	12.3	11.66	10.75	9.38	7.4	4.84	1.88	-1.14	-3.93	-6.31	-8.31	-10.16	-12.1	-14.34	-17.04	-20.23	-23.84	-27.66	-31.25	-33.88	-34.68	-32.87	-28.09	-20.63	-11.4	-1.71	7.17	14.29	19.29	22.3	23.77	24.21	24	23.35	22.35	21.05	19.59	18.19	17.13	16.56	16.48	16.71	17.03	17.25	17.34	17.3
23.27	23.84	23.31	22.03	20.22	18.04	15.68	13.41	11.56	10.43	10.17	10.65	11.56	12.51	13.15	13.37	13.2	12.81	12.3	11.66	10.75	9.38	7.4	4.84	1.88	-1.14	-3.93	-6.31	-8.31	-10.16	-12.1	-14.34	-17.04	-20.23	-23.84	-27.66	-31.25	-33.88	-34.68	-32.87	-28.09	-20.63	-11.4	-1.71	7.17	14.29	19.29	22.3	23.77	24.21	24	23.35	22.35	21.05	19.59	18.19	17.13	16.56	16.48	16.71	17.03	17.25	17.34	17.3	17.15	16.81	16.1	14.87	13.07	10.79	8.25	5.62	2.98	0.31	-2.46	-5.29	-8.04	-10.53	-12.63	-14.42	-16.15	-18.18	-20.84	-24.26	-28.3	-32.53	-36.29	-38.79	-39.28	-37.2	-32.42	-25.28	-16.56	-7.37	1.2	8.29	13.45	16.68	18.26	18.56	17.86	16.4	14.33	11.93	9.6	7.79	6.84	6.84	7.57	8.61	9.54	10.1	10.27	10.17	9.92	9.59	9.14	8.44	7.31	5.61	3.22	0.17	-3.36	-7.05	-10.46	-13.28	-15.35	-16.77
17.15	16.81	16.1	14.87	13.07	10.79	8.25	5.62	2.98	0.31	-2.46	-5.29	-8.04	-10.53	-12.63	-14.42	-16.15	-18.18	-20.84	-24.26	-28.3	-32.53	-36.29	-38.79	-39.28	-37.2	-32.42	-25.28	-16.56	-7.37	1.2	8.29	13.45	16.68	18.26	18.56	17.86	16.4	14.33	11.93	9.6	7.79	6.84	6.84	7.57	8.61	9.54	10.1	10.27	10.17	9.92	9.59	9.14	8.44	7.31	5.61	3.22	0.17	-3.36	-7.05	-10.46	-13.28	-15.35	-16.77	-17.86	-19.04	-20.68	-22.98	-25.84	-28.89	-31.53	-32.94	-32.34	-29.18	-23.35	-15.34	-6.09	3.18	11.34	17.63	21.78	23.93	24.45	23.77	22.22	20.08	17.58	15.04	12.78	11.07	10.03	9.61	9.59	9.7	9.73	9.59	9.27	8.81	8.24	7.51	6.56	5.27	3.54	1.29	-1.46	-4.58	-7.77	-10.67	-12.92	-14.38	-15.17	-15.64	-16.3	-17.58	-19.73	-22.7	-26.1	-29.26	-31.32	-31.4	-28.87	-23.5	-15.69	-6.38	3.16	11.64	18.18	22.44
-17.86	-19.04	-20.68	-22.98	-25.84	-28.89	-31.53	-32.94	-32.34	-29.18	-23.35	-15.34	-6.09	3.18	11.34	17.63	21.78	23.93	24.45	23.77	22.22	20.08	17.58	15.04	12.78	11.07	10.03	9.61	9.59	9.7	9.73	9.59	9.27	8.81	8.24	7.51	6.56	5.27	3.54	1.29	-1.46	-4.58	-7.77	-10.67	-12.92	-14.38	-15.17	-15.64	-16.3	-17.58	-19.73	-22.7	-26.1	-29.26	-31.32	-31.4	-28.87	-23.5	-15.69	-6.38	3.16	11.64	18.18	22.44	24.61	25.2	24.66	23.28	21.19	18.51	15.49	12.54	10.15	8.69	8.22	8.53	9.25	10.02	10.65	11.09	11.37	11.47	11.35	10.89	9.98	8.53	6.5	3.87	0.74	-2.7	-6.13	-9.24	-11.84	-13.96	-15.9	-18.06	-20.87	-24.5	-28.81	-33.32	-37.22	-39.59	-39.59	-36.66	-30.73	-22.3	-12.39	-2.28	6.83	14.11	19.19	22.24	23.64	23.84	23.17	21.86	20.06	18.01	16.03	14.46	13.51	13.13	13.11	13.14	13.03	12.76	12.46	12.26
24.61	25.2	24.66	23.28	21.19	18.51	15.49	12.54	10.15	8.69	8.22	8.53	9.25	10.02	10.65	11.09	11.37	11.47	11.35	10.89	9.98	8.53	6.5	3.87	0.74	-2.7	-6.13	-9.24	-11.84	-13.96	-15.9	-18.06	-20.87	-24.5	-28.81	-33.32	-37.22	-39.59	-39.59	-36.66	-30.73	-22.3	-12.39	-2.28	6.83	14.11	19.19	22.24	23.64	23.84	23.17	21.86	20.06	18.01	16.03	14.46	13.51	13.13	13.11	13.14	13.03	12.76	12.46	12.26	12.19	12.07	11.61	10.5	8.56	5.8	2.39	-1.39	-5.28	-9.04	-12.53	-15.68	-18.53	-21.26	-24.15	-27.45	-31.19	-35.08	-38.39	-40.09	-39.24	-35.27	-28.3	-19.09	-8.85	1.18	10	17.03	22.07	25.14	26.37	25.94	24.1	21.22	17.8	14.44	11.69	9.95	9.34	9.7	10.65	11.72	12.51	12.87	12.85	12.64	12.41	12.1	11.49	10.27	8.25	5.53	2.45	-0.49	-2.91	-4.7	-6.1	-7.58	-9.65	-12.69	-16.79	-21.64	-26.58	-30.63
12.19	12.07	11.61	10.5	8.56	5.8	2.39	-1.39	-5.28	-9.04	-12.53	-15.68	-18.53	-21.26	-24.15	-27.45	-31.19	-35.08	-38.39	-40.09	-39.24	-35.27	-28.3	-19.09	-8.85	1.18	10	17.03	22.07	25.14	26.37	25.94	24.1	21.22	17.8	14.44	11.69	9.95	9.34	9.7	10.65	11.72	12.51	12.87	12.85	12.64	12.41	12.1	11.49	10.27	8.25	5.53	2.45	-0.49	-2.91	-4.7	-6.1	-7.58	-9.65	-12.69	-16.79	-21.64	-26.58	-30.63	-32.76	-32.1	-28.23	-21.26	-11.92	-1.36	9.12	18.35	25.51	30.2	32.45	32.59	31.12	28.66	25.75	22.85	20.2	17.83	15.69	13.66	11.76	10.13	8.96	8.36	8.3	8.5	8.62	8.4	7.68	6.49	4.84	2.75	0.18	-2.84	-6.13	-9.42	-12.47	-15.25	-17.96	-20.97	-24.48	-28.35	-31.9	-34.1	-33.93	-30.72	-24.47	-15.83	-5.98	3.79	12.3	18.79	22.96	24.87	24.83	23.2	20.41	16.84	12.93	9.15	5.92	3.61	2.36	2.12
-32.76	-32.1	-28.23	-21.26	-11.92	-1.36	9.12	18.35	25.51	30.2	32.45	32.59	31.12	28.66	25.75	22.85	20.2	17.83	15.69	13.66	11.76	10.13	8.96	8.36	8.3	8.5	8.62	8.4	7.68	6.49	4.84	2.75	0.18	-2.84	-6.13	-9.42	-12.47	-15.25	-17.96	-20.97	-24.48	-28.35	-31.9	-34.1	-33.93	-30.72	-24.47	-15.83	-5.98	3.79	12.3	18.79	22.96	24.87	24.83	23.2	20.41	16.84	12.93	9.15	5.92	3.61	2.36	2.12	2.58	3.37	4.16	4.76	5.17	5.37	5.34	4.82	3.58	1.39	-1.66	-5.29	-9.02	-12.39	-15.22	-17.63	-20.01	-22.69	-25.82	-29.08	-31.81	-33.09	-32.11	-28.36	-21.87	-13.25	-3.52	6.13	14.6	21.12	25.35	27.38	27.53	26.32	24.21	21.6	18.79	16.04	13.53	11.42	9.75	8.48	7.55	6.9	6.57	6.6	6.98	7.57	8.04	7.98	7.05	5.14	2.37	-0.88	-4.24	-7.38	-10.22	-12.84	-15.5	-18.46	-21.93	-25.84	-29.84	-33.23
2.58	3.37	4.16	4.76	5.17	5.37	5.34	4.82	3.58	1.39	-1.66	-5.29	-9.02	-12.39	-15.22	-17.63	-20.01	-22.69	-25.82	-29.08	-31.81	-33.09	-32.11	-28.36	-21.87	-13.25	-3.52	6.13	14.6	21.12	25.35	27.38	27.53	26.32	24.21	21.6	18.79	16.04	13.53	11.42	9.75	8.48	7.55	6.9	6.57	6.6	6.98	7.57	8.04	7.98	7.05	5.14	2.37	-0.88	-4.24	-7.38	-10.22	-12.84	-15.5	-18.46	-21.93	-25.84	-29.84	-33.23	-35.09	-34.53	-30.99	-24.46	-15.59	-5.51	4.47	13.19	19.92	24.42	26.84	27.57	27.05	25.68	23.77	21.55	19.22	17	15.11	13.73	12.96	12.8	13.08	13.57	14.06	14.39	14.43	14.09	13.24	11.73	9.48	6.51	3.05	-0.53	-3.85	-6.67	-8.93	-10.87	-12.83	-15.26	-18.45	-22.47	-27.02	-31.37	-34.56	-35.57	-33.74	-28.97	-21.8	-13.31	-4.72	2.96	9.13	13.65	16.71	18.5	19.19	18.79	17.33	14.93	11.88	8.63	5.69	3.46
-35.09	-34.53	-30.99	-24.46	-15.59	-5.51	4.47	13.19	19.92	24.42	26.84	27.57	27.05	25.68	23.77	21.55	19.22	17	15.11	13.73	12.96	12.8	13.08	13.57	14.06	14.39	14.43	14.09	13.24	11.73	9.48	6.51	3.05	-0.53	-3.85	-6.67	-8.93	-10.87	-12.83	-15.26	-18.45	-22.47	-27.02	-31.37	-34.56	-35.57	-33.74	-28.97	-21.8	-13.31	-4.72	2.96	9.13	13.65	16.71	18.5	19.19	18.79	17.33	14.93	11.88	8.63	5.69	3.46	2.14	1.7	1.9	2.51	3.33	4.29	5.37	6.48	7.47	8.06	7.97	7.04	5.31	3	0.45	-2.03	-4.31	-6.41	-8.45	-10.59	-12.99	-15.79	-19.15	-23.15	-27.72	-32.45	-36.53	-38.9	-38.54	-34.86	-27.97	-18.67	-8.23	2.02	11.02	18.16	23.18	26.15	27.23	26.67	24.78	21.99	18.82	15.78	13.24	11.4	10.24	9.6	9.3	9.17	9.15	9.2	9.31	9.42	9.41	9.15	8.46	7.24	5.46	3.18	0.56	-2.14	-4.71	-7.01
2.14	1.7	1.9	2.51	3.33	4.29	5.37	6.48	7.47	8.06	7.97	7.04	5.31	3	0.45	-2.03	-4.31	-6.41	-8.45	-10.59	-12.99	-15.79	-19.15	-23.15	-27.72	-32.45	-36.53	-38.9	-38.54	-34.86	-27.97	-18.67	-8.23	2.02	11.02	18.16	23.18	26.15	27.23	26.67	24.78	21.99	18.82	15.78	13.24	11.4	10.24	9.6	9.3	9.17	9.15	9.2	9.31	9.42	9.41	9.15	8.46	7.24	5.46	3.18	0.56	-2.14	-4.71	-7.01	-9.05	-11.02	-13.19	-15.81	-18.99	-22.6	-26.28	-29.45	-31.39	-31.38	-28.92	-23.89	-16.63	-7.94	1.12	9.55	16.56	21.71	24.91	26.3	26.14	24.75	22.53	19.92	17.42	15.48	14.37	14.16	14.63	15.42	16.06	16.27	15.95	15.2	14.23	13.2	12.14	10.94	9.42	7.49	5.15	2.54	-0.18	-2.83	-5.32	-7.64	-9.82	-11.97	-14.27	-16.94	-20.1	-23.66	-27.25	-30.18	-31.64	-30.87	-27.48	-21.56	-13.69	-4.79	4.06	11.91	18.08	22.25
-9.05	-11.02	-13.19	-15.81	-18.99	-22.6	-26.28	-29.45	-31.39	-31.38	-28.92	-23.89	-16.63	-7.94	1.12	9.55	16.56	21.71	24.91	26.3	26.14	24.75	22.53	19.92	17.42	15.48	14.37	14.16	14.63	15.42	16.06	16.27	15.95	15.2	14.23	13.2	12.14	10.94	9.42	7.49	5.15	2.54	-0.18	-2.83	-5.32	-7.64	-9.82	-11.97	-14.27	-16.94	-20.1	-23.66	-27.25	-30.18	-31.64	-30.87	-27.48	-21.56	-13.69	-4.79	4.06	11.91	18.08	22.25	24.44	24.89	24	22.16	19.7	16.9	13.98	11.19	8.83	7.2	6.42	6.46	7.04	7.74	8.22	8.3	8.08	7.76	7.47	7.14	6.5	5.2	2.97	-0.13	-3.75	-7.37	-10.47	-12.79	-14.35	-15.48	-16.64	-18.23	-20.48	-23.4	-26.77	-30.21	-33.19	-35.05	-35.13	-32.87	-28.06	-20.99	-12.48	-3.68	4.24	10.45	14.68	17.1	18.12	18.07	17.12	15.32	12.75	9.7	6.68	4.23	2.74	2.3	2.66	3.46	4.32	5.04	5.56	5.88
24.44	24.89	24	22.16	19.7	16.9	13.98	11.19	8.83	7.2	6.42	6.46	7.04	7.74	8.22	8.3	8.08	7.76	7.47	7.14	6.5	5.2	2.97	-0.13	-3.75	-7.37	-10.47	-12.79	-14.35	-15.48	-16.64	-18.23	-20.48	-23.4	-26.77	-30.21	-33.19	-35.05	-35.13	-32.87	-28.06	-20.99	-12.48	-3.68	4.24	10.45	14.68	17.1	18.12	18.07	17.12	15.32	12.75	9.7	6.68	4.23	2.74	2.3	2.66	3.46	4.32	5.04	5.56	5.88	6.01	5.86	5.31	4.23	2.54	0.26	-2.5	-5.51	-8.51	-11.22	-13.52	-15.39	-17.02	-18.71	-20.83	-23.64	-27.07	-30.72	-33.78	-35.33	-34.55	-31.06	-25.02	-17.15	-8.4	0.24	7.99	14.4	19.27	22.58	24.4	24.8	23.96	22.12	19.65	16.98	14.56	12.71	11.57	11.01	10.77	10.59	10.27	9.78	9.22	8.65	8.08	7.38	6.36	4.86	2.83	0.31	-2.51	-5.4	-8.12	-10.53	-12.65	-14.67	-16.93	-19.72	-23.17	-27.08	-30.88	-33.72
6.01	5.86	5.31	4.23	2.54	0.26	-2.5	-5.51	-8.51	-11.22	-13.52	-15.39	-17.02	-18.71	-20.83	-23.64	-27.07	-30.72	-33.78	-35.33	-34.55	-31.06	-25.02	-17.15	-8.4	0.24	7.99	14.4	19.27	22.58	24.4	24.8	23.96	22.12	19.65	16.98	14.56	12.71	11.57	11.01	10.77	10.59	10.27	9.78	9.22	8.65	8.08	7.38	6.36	4.86	2.83	0.31	-2.51	-5.4	-8.12	-10.53	-12.65	-14.67	-16.93	-19.72	-23.17	-27.08	-30.88	-33.72	-34.7	-33.15	-28.8	-21.96	-13.35	-4.01	5.01	12.82	18.86	22.91	25.05	25.58	24.85	23.2	20.95	18.34	15.7	13.37	11.66	10.76	10.6	10.88	11.23	11.4	11.37	11.32	11.44	11.7	11.81	11.34	9.97	7.66	4.69	1.48	-1.59	-4.31	-6.69	-8.85	-10.97	-13.26	-15.96	-19.28	-23.27	-27.7	-31.92	-34.97	-35.79	-33.62	-28.29	-20.29	-10.67	-0.73	8.31	15.62	20.81	23.97	25.44	25.64	24.96	23.68	22.02	20.16	18.32	16.73
-34.7	-33.15	-28.8	-21.96	-13.35	-4.01	5.01	12.82	18.86	22.91	25.05	25.58	24.85	23.2	20.95	18.34	15.7	13.37	11.66	10.76	10.6	10.88	11.23	11.4	11.37	11.32	11.44	11.7	11.81	11.34	9.97	7.66	4.69	1.48	-1.59	-4.31	-6.69	-8.85	-10.97	-13.26	-15.96	-19.28	-23.27	-27.7	-31.92	-34.97	-35.79	-33.62	-28.29	-20.29	-10.67	-0.73	8.31	15.62	20.81	23.97	25.44	25.64	24.96	23.68	22.02	20.16	18.32	16.73	15.54	14.81	14.51	14.5	14.65	14.87	15.07	15.22	15.19	14.83	14.01	12.62	10.75	8.58	6.37	4.3	2.41	0.59	-1.34	-3.59	-6.22	-9.16	-12.2	-15.12	-17.75	-20.14	-22.48	-25.04	-27.96	-31.12	-34	-35.82	-35.74	-33.15	-27.97	-20.64	-12.09	-3.35	4.66	11.32	16.36	19.71	21.44	21.64	20.51	18.34	15.56	12.72	10.28	8.59	7.72	7.56	7.92	8.66	9.65	10.82	12.02	13.01	13.52	13.38	12.57	11.23	9.58	7.72
15.54	14.81	14.51	14.5	14.65	14.87	15.07	15.22	15.19	14.83	14.01	12.62	10.75	8.58	6.37	4.3	2.41	0.59	-1.34	-3.59	-6.22	-9.16	-12.2	-15.12	-17.75	-20.14	-22.48	-25.04	-27.96	-31.12	-34	-35.82	-35.74	-33.15	-27.97	-20.64	-12.09	-3.35	4.66	11.32	16.36	19.71	21.44	21.64	20.51	18.34	15.56	12.72	10.28	8.59	7.72	7.56	7.92	8.66	9.65	10.82	12.02	13.01	13.52	13.38	12.57	11.23	9.58	7.72	5.62	3.14	0.17	-3.24	-6.84	-10.31	-13.33	-15.83	-18.01	-20.22	-22.86	-26.13	-30.03	-34.27	-38.37	-41.71	-43.61	-43.43	-40.74	-35.43	-27.87	-18.87	-9.56	-1.1	5.64	10.17	12.44	12.74	11.47	9.03	5.76	1.99	-1.95	-5.69	-8.88	-11.25	-12.63	-13.03	-12.59	-11.51	-9.98	-8.12	-6.01	-3.71	-1.36	0.79	2.43	3.24	3.07	2	0.37	-1.33	-2.59	-3.04	-2.62	-1.58	-0.43	0.21	-0.11	-1.56	-3.8	-6.14	-7.6	-7.26
5.62	3.14	0.17	-3.24	-6.84	-10.31	-13.33	-15.83	-18.01	-20.22	-22.86	-26.13	-30.03	-34.27	-38.37	-41.71	-43.61	-43.43	-40.74	-35.43	-27.87	-18.87	-9.56	-1.1	5.64	10.17	12.44	12.74	11.47	9.03	5.76	1.99	-1.95	-5.69	-8.88	-11.25	-12.63	-13.03	-12.59	-11.51	-9.98	-8.12	-6.01	-3.71	-1.36	0.79	2.43	3.24	3.07	2	0.37	-1.33	-2.59	-3.04	-2.62	-1.58	-0.43	0.21	-0.11	-1.56	-3.8	-6.14	-7.6	-7.26	-4.52	0.7	7.97	16.4	24.99	32.79	39.14	43.68	46.33	47.16	46.35	44.14	40.84	36.82	32.5	28.25	24.36	20.97	18.15	15.9	14.18	12.98	12.28	12.07	12.28	12.72	13.14	13.19	12.57	11.04	8.57	5.28	1.42	-2.68	-6.71	-10.44	-13.78	-16.82	-19.81	-23.05	-26.72	-30.76	-34.72	-37.87	-39.34	-38.4	-34.7	-28.4	-20.1	-10.79	-1.54	6.65	13.08	17.38	19.53	19.81	18.63	16.47	13.8	11.02	8.45	6.36	4.95	4.29
-4.52	0.7	7.97	16.4	24.99	32.79	39.14	43.68	46.33	47.16	46.35	44.14	40.84	36.82	32.5	28.25	24.36	20.97	18.15	15.9	14.18	12.98	12.28	12.07	12.28	12.72	13.14	13.19	12.57	11.04	8.57	5.28	1.42	-2.68	-6.71	-10.44	-13.78	-16.82	-19.81	-23.05	-26.72	-30.76	-34.72	-37.87	-39.34	-38.4	-34.7	-28.4	-20.1	-10.79	-1.54	6.65	13.08	17.38	19.53	19.81	18.63	16.47	13.8	11.02	8.45	6.36	4.95	4.29	4.31	4.8	5.47	6.06	6.39	6.45	6.35	6.21	6.08	5.91	5.55	4.82	3.62	1.97	-0.03	-2.17	-4.23	-6.06	-7.59	-8.91	-10.31	-12.15	-14.77	-18.27	-22.32	-26.19	-28.82	-29.18	-26.6	-21.05	-13.19	-4.16	4.8	12.69	18.89	23.17	25.58	26.25	25.34	23.13	19.98	16.38	12.85	9.83	7.61	6.29	5.83	6.07	6.86	8.02	9.35	10.64	11.67	12.21	12.08	11.21	9.6	7.38	4.77	2.05	-0.6	-3.02	-5.21	-7.27
4.31	4.8	5.47	6.06	6.39	6.45	6.35	6.21	6.08	5.91	5.55	4.82	3.62	1.97	-0.03	-2.17	-4.23	-6.06	-7.59	-8.91	-10.31	-12.15	-14.77	-18.27	-22.32	-26.19	-28.82	-29.18	-26.6	-21.05	-13.19	-4.16	4.8	12.69	18.89	23.17	25.58	26.25	25.34	23.13	19.98	16.38	12.85	9.83	7.61	6.29	5.83	6.07	6.86	8.02	9.35	10.64	11.67	12.21	12.08	11.21	9.6	7.38	4.77	2.05	-0.6	-3.02	-5.21	-7.27	-9.39	-11.8	-14.67	-18.01	-21.51	-24.51	-26.11	-25.44	-21.96	-15.76	-7.55	1.47	9.97	16.92	21.81	24.64	25.8	25.74	24.81	23.13	20.73	17.64	14.05	10.3	6.8	3.86	1.63	0.1	-0.82	-1.16	-0.96	-0.29	0.64	1.45	1.67	0.95	-0.8	-3.36	-6.3	-9.24	-11.97	-14.54	-17.2	-20.21	-23.75	-27.73	-31.78	-35.27	-37.4	-37.37	-34.64	-29.1	-21.19	-11.8	-2.08	6.86	14.2	19.51	22.68	23.84	23.25	21.21	18.13	14.48
-9.39	-11.8	-14.67	-18.01	-21.51	-24.51	-26.11	-25.44	-21.96	-15.76	-7.55	1.47	9.97	16.92	21.81	24.64	25.8	25.74	24.81	23.13	20.73	17.64	14.05	10.3	6.8	3.86	1.63	0.1	-0.82	-1.16	-0.96	-0.29	0.64	1.45	1.67	0.95	-0.8	-3.36	-6.3	-9.24	-11.97	-14.54	-17.2	-20.21	-23.75	-27.73	-31.78	-35.27	-37.4	-37.37	-34.64	-29.1	-21.19	-11.8	-2.08	6.86	14.2	19.51	22.68	23.84	23.25	21.21	18.13	14.48	10.79	7.58	5.23	3.93	3.6	3.99	4.8	5.8	6.82	7.78	8.56	8.93	8.62	7.43	5.35	2.59	-0.41	-3.27	-5.83	-8.2	-10.73	-13.82	-17.63	-22.04	-26.55	-30.41	-32.76	-32.8	-29.98	-24.19	-15.85	-5.86	4.56	14.16	21.96	27.41	30.43	31.31	30.52	28.63	26.15	23.52	21.08	19.05	17.56	16.61	16.15	16.1	16.35	16.77	17.16	17.28	16.87	15.7	13.58	10.44	6.35	1.51	-3.78	-9.14	-14.2	-18.69	-22.52	-25.76
10.79	7.58	5.23	3.93	3.6	3.99	4.8	5.8	6.82	7.78	8.56	8.93	8.62	7.43	5.35	2.59	-0.41	-3.27	-5.83	-8.2	-10.73	-13.82	-17.63	-22.04	-26.55	-30.41	-32.76	-32.8	-29.98	-24.19	-15.85	-5.86	4.56	14.16	21.96	27.41	30.43	31.31	30.52	28.63	26.15	23.52	21.08	19.05	17.56	16.61	16.15	16.1	16.35	16.77	17.16	17.28	16.87	15.7	13.58	10.44	6.35	1.51	-3.78	-9.14	-14.2	-18.69	-22.52	-25.76	-28.67	-31.58	-34.73	-38.17	-41.57	-44.27	-45.36	-43.93	-39.37	-31.68	-21.47	-9.95	1.43	11.35	18.92	23.83	26.27	26.75	25.82	23.94	21.45	18.63	15.78	13.25	11.33	10.21	9.83	9.97	10.34	10.71	10.95	11.07	11.02	10.7	9.94	8.51	6.32	3.38	-0.08	-3.73	-7.23	-10.36	-13.06	-15.49	-17.97	-20.83	-24.31	-28.32	-32.44	-35.9	-37.78	-37.26	-33.87	-27.69	-19.28	-9.64	0.13	8.98	16.11	21.06	23.68	24.11	22.67	19.88
-28.67	-31.58	-34.73	-38.17	-41.57	-44.27	-45.36	-43.93	-39.37	-31.68	-21.47	-9.95	1.43	11.35	18.92	23.83	26.27	26.75	25.82	23.94	21.45	18.63	15.78	13.25	11.33	10.21	9.83	9.97	10.34	10.71	10.95	11.07	11.02	10.7	9.94	8.51	6.32	3.38	-0.08	-3.73	-7.23	-10.36	-13.06	-15.49	-17.97	-20.83	-24.31	-28.32	-32.44	-35.9	-37.78	-37.26	-33.87	-27.69	-19.28	-9.64	0.13	8.98	16.11	21.06	23.68	24.11	22.67	19.88	16.33	12.58	9.13	6.27	4.18	2.88	2.31	2.37	2.95	3.86	4.9	5.88	6.6	6.89	6.58	5.54	3.65	0.99	-2.24	-5.69	-9.02	-12.02	-14.71	-17.31	-20.14	-23.42	-27.23	-31.35	-35.33	-38.53	-40.18	-39.53	-36.03	-29.59	-20.7	-10.37	0.06	9.31	16.48	21.21	23.65	24.21	23.32	21.36	18.62	15.45	12.28	9.57	7.68	6.7	6.5	6.8	7.36	8.05	8.84	9.71	10.49	10.85	10.42	8.89	6.21	2.59	-1.54	-5.69
16.33	12.58	9.13	6.27	4.18	2.88	2.31	2.37	2.95	3.86	4.9	5.88	6.6	6.89	6.58	5.54	3.65	0.99	-2.24	-5.69	-9.02	-12.02	-14.71	-17.31	-20.14	-23.42	-27.23	-31.35	-35.33	-38.53	-40.18	-39.53	-36.03	-29.59	-20.7	-10.37	0.06	9.31	16.48	21.21	23.65	24.21	23.32	21.36	18.62	15.45	12.28	9.57	7.68	6.7	6.5	6.8	7.36	8.05	8.84	9.71	10.49	10.85	10.42	8.89	6.21	2.59	-1.54	-5.69	-9.44	-12.6	-15.24	-17.71	-20.47	-23.91	-28.12	-32.71	-36.76	-39.07	-38.5	-34.41	-26.92	-16.88	-5.65	5.3	14.81	22.2	27.23	29.96	30.62	29.56	27.23	24.21	21.08	18.33	16.21	14.68	13.5	12.43	11.43	10.6	10.18	10.29	10.81	11.36	11.42	10.55	8.57	5.6	1.98	-1.88	-5.65	-9.15	-12.34	-15.33	-18.35	-21.67	-25.52	-29.91	-34.5	-38.5	-40.79	-40.21	-35.95	-27.91	-16.83	-4.07	8.73	20.1	29.1	35.38	39.08	40.59
-9.44	-12.6	-15.24	-17.71	-20.47	-23.91	-28.12	-32.71	-36.76	-39.07	-38.5	-34.41	-26.92	-16.88	-5.65	5.3	14.81	22.2	27.23	29.96	30.62	29.56	27.23	24.21	21.08	18.33	16.21	14.68	13.5	12.43	11.43	10.6	10.18	10.29	10.81	11.36	11.42	10.55	8.57	5.6	1.98	-1.88	-5.65	-9.15	-12.34	-15.33	-18.35	-21.67	-25.52	-29.91	-34.5	-38.5	-40.79	-40.21	-35.95	-27.91	-16.83	-4.07	8.73	20.1	29.1	35.38	39.08	40.59	40.3	38.49	35.44	31.46	27	22.66	19.01	16.43	14.97	14.35	14.16	14.04	13.83	13.61	13.51	13.61	13.67	13.28	11.9	9.18	5.14	0.19	-5.01	-9.83	-13.86	-17.12	-19.89	-22.6	-25.57	-28.92	-32.41	-35.52	-37.54	-37.66	-35.19	-29.75	-21.45	-11.02	0.35	11.27	20.53	27.39	31.66	33.54	33.46	31.87	29.16	25.74	22.05	18.59	15.79	13.91	12.93	12.67	12.83	13.21	13.66	14.14	14.56	14.8	14.64	13.85	12.25	9.79
40.3	38.49	35.44	31.46	27	22.66	19.01	16.43	14.97	14.35	14.16	14.04	13.83	13.61	13.51	13.61	13.67	13.28	11.9	9.18	5.14	0.19	-5.01	-9.83	-13.86	-17.12	-19.89	-22.6	-25.57	-28.92	-32.41	-35.52	-37.54	-37.66	-35.19	-29.75	-21.45	-11.02	0.35	11.27	20.53	27.39	31.66	33.54	33.46	31.87	29.16	25.74	22.05	18.59	15.79	13.91	12.93	12.67	12.83	13.21	13.66	14.14	14.56	14.8	14.64	13.85	12.25	9.79	6.57	2.78	-1.25	-5.18	-8.75	-11.84	-14.54	-17.15	-20.05	-23.57	-27.76	-32.29	-36.46	-39.3	-39.83	-37.39	-31.81	-23.55	-13.62	-3.29	6.19	13.91	19.43	22.76	24.17	23.96	22.36	19.6	15.99	12.05	8.42	5.65	4.02	3.4	3.4	3.61	3.81	4.03	4.48	5.27	6.26	7.08	7.24	6.39	4.42	1.53	-1.91	-5.45	-8.74	-11.6	-14.1	-16.48	-19.12	-22.33	-26.21	-30.49	-34.51	-37.27	-37.74	-35.13	-29.2	-20.39	-9.77	1.33
6.57	2.78	-1.25	-5.18	-8.75	-11.84	-14.54	-17.15	-20.05	-23.57	-27.76	-32.29	-36.46	-39.3	-39.83	-37.39	-31.81	-23.55	-13.62	-3.29	6.19	13.91	19.43	22.76	24.17	23.96	22.36	19.6	15.99	12.05	8.42	5.65	4.02	3.4	3.4	3.61	3.81	4.03	4.48	5.27	6.26	7.08	7.24	6.39	4.42	1.53	-1.91	-5.45	-8.74	-11.6	-14.1	-16.48	-19.12	-22.33	-26.21	-30.49	-34.51	-37.27	-37.74	-35.13	-29.2	-20.39	-9.77	1.33	11.53	19.81	25.61	28.82	29.66	28.57	26.02	22.52	18.57	14.65	11.24	8.66	7.12	6.63	6.99	7.9	8.98	9.93	10.61	10.98	11.11	10.98	10.47	9.32	7.29	4.27	0.48	-3.64	-7.56	-10.96	-13.81	-16.42	-19.2	-22.49	-26.32	-30.39	-34.02	-36.34	-36.44	-33.66	-27.8	-19.31	-9.11	1.5	11.32	19.48	25.57	29.54	31.53	31.69	30.21	27.4	23.78	20.02	16.82	14.61	13.48	13.2	13.33	13.52	13.61	13.61	13.65	13.81
11.53	19.81	25.61	28.82	29.66	28.57	26.02	22.52	18.57	14.65	11.24	8.66	7.12	6.63	6.99	7.9	8.98	9.93	10.61	10.98	11.11	10.98	10.47	9.32	7.29	4.27	0.48	-3.64	-7.56	-10.96	-13.81	-16.42	-19.2	-22.49	-26.32	-30.39	-34.02	-36.34	-36.44	-33.66	-27.8	-19.31	-9.11	1.5	11.32	19.48	25.57	29.54	31.53	31.69	30.21	27.4	23.78	20.02	16.82	14.61	13.48	13.2	13.33	13.52	13.61	13.61	13.65	13.81	13.99	13.94	13.36	12.02	9.81	6.8	3.2	-0.68	-4.56	-8.24	-11.66	-14.95	-18.3	-21.98	-26.09	-30.58	-35.04	-38.77	-40.85	-40.37	-36.72	-29.88	-20.49	-9.74	0.95	10.28	17.42	22.08	24.38	24.73	23.57	21.36	18.54	15.52	12.77	10.63	9.32	8.81	8.91	9.3	9.68	9.84	9.76	9.52	9.22	8.89	8.39	7.47	5.84	3.38	0.18	-3.45	-7.11	-10.41	-13.15	-15.41	-17.48	-19.78	-22.69	-26.37	-30.59	-34.73	-37.83	-38.81
13.99	13.94	13.36	12.02	9.81	6.8	3.2	-0.68	-4.56	-8.24	-11.66	-14.95	-18.3	-21.98	-26.09	-30.58	-35.04	-38.77	-40.85	-40.37	-36.72	-29.88	-20.49	-9.74	0.95	10.28	17.42	22.08	24.38	24.73	23.57	21.36	18.54	15.52	12.77	10.63	9.32	8.81	8.91	9.3	9.68	9.84	9.76	9.52	9.22	8.89	8.39	7.47	5.84	3.38	0.18	-3.45	-7.11	-10.41	-13.15	-15.41	-17.48	-19.78	-22.69	-26.37	-30.59	-34.73	-37.83	-38.81	-36.88	-31.72	-23.71	-13.78	-3.22	6.65	14.8	20.64	24	25.08	24.25	21.97	18.65	14.73	10.6	6.65	3.21	0.55	-1.18	-1.98	-1.99	-1.39	-0.36	0.88	2.2	3.39	4.22	4.37	3.56	1.58	-1.49	-5.31	-9.27	-12.77	-15.42	-17.22	-18.58	-20.16	-22.54	-26.01	-30.36	-34.84	-38.36	-39.69	-37.84	-32.38	-23.61	-12.55	-0.66	10.5	19.71	26.26	29.98	31.17	30.38	28.23	25.33	22.23	19.29	16.76	14.69	13.04	11.74	10.71
-36.88	-31.72	-23.71	-13.78	-3.22	6.65	14.8	20.64	24	25.08	24.25	21.97	18.65	14.73	10.6	6.65	3.21	0.55	-1.18	-1.98	-1.99	-1.39	-0.36	0.88	2.2	3.39	4.22	4.37	3.56	1.58	-1.49	-5.31	-9.27	-12.77	-15.42	-17.22	-18.58	-20.16	-22.54	-26.01	-30.36	-34.84	-38.36	-39.69	-37.84	-32.38	-23.61	-12.55	-0.66	10.5	19.71	26.26	29.98	31.17	30.38	28.23	25.33	22.23	19.29	16.76	14.69	13.04	11.74	10.71	9.92	9.35	9.05	9.03	9.27	9.68	10.09	10.19	9.68	8.26	5.84	2.51	-1.4	-5.46	-9.28	-12.65	-15.62	-18.43	-21.42	-24.83	-28.61	-32.33	-35.21	-36.28	-34.67	-29.91	-22.11	-12.01	-0.82	10.08	19.51	26.69	31.33	33.55	33.74	32.35	29.81	26.56	23.03	19.65	16.81	14.78	13.66	13.4	13.81	14.65	15.64	16.54	17.16	17.36	17.05	16.23	14.9	13.08	10.76	7.92	4.56	0.81	-3.08	-6.84	-10.3	-13.42	-16.36	-19.33
9.92	9.35	9.05	9.03	9.27	9.68	10.09	10.19	9.68	8.26	5.84	2.51	-1.4	-5.46	-9.28	-12.65	-15.62	-18.43	-21.42	-24.83	-28.61	-32.33	-35.21	-36.28	-34.67	-29.91	-22.11	-12.01	-0.82	10.08	19.51	26.69	31.33	33.55	33.74	32.35	29.81	26.56	23.03	19.65	16.81	14.78	13.66	13.4	13.81	14.65	15.64	16.54	17.16	17.36	17.05	16.23	14.9	13.08	10.76	7.92	4.56	0.81	-3.08	-6.84	-10.3	-13.42	-16.36	-19.33	-22.53	-26.09	-29.96	-33.96	-37.7	-40.59	-41.82	-40.58	-36.31	-28.97	-19.18	-8.09	2.95	12.76	20.66	26.43	30.24	32.39	33.17	32.82	31.55	29.64	27.4	25.18	23.26	21.8	20.81	20.21	19.89	19.78	19.82	19.96	20.13	20.2	20.06	19.54	18.53	16.92	14.67	11.74	8.19	4.17	-0.06	-4.25	-8.13	-11.59	-14.57	-17.13	-19.37	-21.44	-23.57	-26.03	-29	-32.43	-35.89	-38.57	-39.44	-37.56	-32.48	-24.42	-14.27	-3.33	7.05	15.83
-22.53	-26.09	-29.96	-33.96	-37.7	-40.59	-41.82	-40.58	-36.31	-28.97	-19.18	-8.09	2.95	12.76	20.66	26.43	30.24	32.39	33.17	32.82	31.55	29.64	27.4	25.18	23.26	21.8	20.81	20.21	19.89	19.78	19.82	19.96	20.13	20.2	20.06	19.54	18.53	16.92	14.67	11.74	8.19	4.17	-0.06	-4.25	-8.13	-11.59	-14.57	-17.13	-19.37	-21.44	-23.57	-26.03	-29	-32.43	-35.89	-38.57	-39.44	-37.56	-32.48	-24.42	-14.27	-3.33	7.05	15.83	22.41	26.64	28.68	28.82	27.36	24.65	21.1	17.24	13.66	10.89	9.25	8.69	8.89	9.37	9.72	9.74	9.47	9.09	8.75	8.46	8.07	7.32	6	4	1.4	-1.56	-4.61	-7.49	-10.02	-12.15	-13.94	-15.53	-17.14	-19.09	-21.63	-24.9	-28.78	-32.72	-35.81	-36.96	-35.29	-30.43	-22.73	-13.13	-2.91	6.67	14.71	20.66	24.37	25.91	25.52	23.55	20.42	16.7	12.95	9.75	7.5	6.35	6.16	6.54	7.07	7.39	7.44	7.34
22.41	26.64	28.68	28.82	27.36	24.65	21.1	17.24	13.66	10.89	9.25	8.69	8.89	9.37	9.72	9.74	9.47	9.09	8.75	8.46	8.07	7.32	6	4	1.4	-1.56	-4.61	-7.49	-10.02	-12.15	-13.94	-15.53	-17.14	-19.09	-21.63	-24.9	-28.78	-32.72	-35.81	-36.96	-35.29	-30.43	-22.73	-13.13	-2.91	6.67	14.71	20.66	24.37	25.91	25.52	23.55	20.42	16.7	12.95	9.75	7.5	6.35	6.16	6.54	7.07	7.39	7.44	7.34	7.34	7.55	7.81	7.78	7.01	5.25	2.49	-0.97	-4.71	-8.3	-11.45	-14.05	-16.11	-17.79	-19.31	-20.95	-22.95	-25.35	-27.87	-29.88	-30.5	-28.86	-24.45	-17.35	-8.3	1.5	10.72	18.29	23.64	26.72	27.85	27.5	26.11	24.02	21.51	18.82	16.16	13.74	11.7	10.11	8.92	8.07	7.48	7.11	7.01	7.22	7.69	8.19	8.34	7.68	5.94	3.1	-0.49	-4.32	-7.86	-10.86	-13.34	-15.6	-18.01	-20.9	-24.42	-28.46	-32.6	-36.18
7.34	7.55	7.81	7.78	7.01	5.25	2.49	-0.97	-4.71	-8.3	-11.45	-14.05	-16.11	-17.79	-19.31	-20.95	-22.95	-25.35	-27.87	-29.88	-30.5	-28.86	-24.45	-17.35	-8.3	1.5	10.72	18.29	23.64	26.72	27.85	27.5	26.11	24.02	21.51	18.82	16.16	13.74	11.7	10.11	8.92	8.07	7.48	7.11	7.01	7.22	7.69	8.19	8.34	7.68	5.94	3.1	-0.49	-4.32	-7.86	-10.86	-13.34	-15.6	-18.01	-20.9	-24.42	-28.46	-32.6	-36.18	-38.29	-38.06	-34.89	-28.69	-20.05	-10.06	-0.1	8.61	15.22	19.43	21.45	21.78	20.95	19.38	17.29	14.74	11.78	8.58	5.45	2.8	0.95	0.07	0.08	0.76	1.79	2.89	3.8	4.34	4.35	3.72	2.44	0.54	-1.83	-4.49	-7.26	-10.01	-12.72	-15.53	-18.63	-22.2	-26.16	-30.13	-33.41	-35.1	-34.37	-30.8	-24.49	-16.16	-6.88	2.15	9.95	15.91	19.82	21.78	22.05	20.98	18.96	16.42	13.81	11.5	9.69	8.39	7.47	6.77
-38.29	-38.06	-34.89	-28.69	-20.05	-10.06	-0.1	8.61	15.22	19.43	21.45	21.78	20.95	19.38	17.29	14.74	11.78	8.58	5.45	2.8	0.95	0.07	0.08	0.76	1.79	2.89	3.8	4.34	4.35	3.72	2.44	0.54	-1.83	-4.49	-7.26	-10.01	-12.72	-15.53	-18.63	-22.2	-26.16	-30.13	-33.41	-35.1	-34.37	-30.8	-24.49	-16.16	-6.88	2.15	9.95	15.91	19.82	21.78	22.05	20.98	18.96	16.42	13.81	11.5	9.69	8.39	7.47	6.77	6.19	5.8	5.69	5.9	6.24	6.4	6.02	4.87	2.96	0.47	-2.32	-5.22	-8.15	-11.15	-14.28	-17.61	-21.17	-24.95	-28.86	-32.66	-35.85	-37.72	-37.45	-34.42	-28.45	-20.04	-10.19	-0.15	8.89	16.08	21.06	23.84	24.7	24.05	22.33	19.95	17.23	14.48	11.92	9.69	7.89	6.57	5.77	5.48	5.71	6.4	7.42	8.54	9.41	9.65	8.91	7.08	4.2	0.54	-3.5	-7.49	-11.09	-14.16	-16.78	-19.26	-21.99	-25.28	-29.05	-32.79
6.19	5.8	5.69	5.9	6.24	6.4	6.02	4.87	2.96	0.47	-2.32	-5.22	-8.15	-11.15	-14.28	-17.61	-21.17	-24.95	-28.86	-32.66	-35.85	-37.72	-37.45	-34.42	-28.45	-20.04	-10.19	-0.15	8.89	16.08	21.06	23.84	24.7	24.05	22.33	19.95	17.23	14.48	11.92	9.69	7.89	6.57	5.77	5.48	5.71	6.4	7.42	8.54	9.41	9.65	8.91	7.08	4.2	0.54	-3.5	-7.49	-11.09	-14.16	-16.78	-19.26	-21.99	-25.28	-29.05	-32.79	-35.56	-36.26	-34.02	-28.59	-20.43	-10.6	-0.47	8.75	16.2	21.54	24.82	26.33	26.43	25.39	23.49	20.97	18.18	15.47	13.24	11.75	11.06	11.04	11.38	11.79	12.1	12.28	12.42	12.55	12.53	12.03	10.68	8.22	4.73	0.58	-3.67	-7.44	-10.43	-12.64	-14.34	-15.92	-17.73	-20.01	-22.87	-26.25	-29.91	-33.39	-35.94	-36.64	-34.67	-29.61	-21.74	-12.01	-1.84	7.37	14.64	19.63	22.57	23.98	24.33	23.91	22.78	20.93	18.45	15.58
-35.56	-36.26	-34.02	-28.59	-20.43	-10.6	-0.47	8.75	16.2	21.54	24.82	26.33	26.43	25.39	23.49	20.97	18.18	15.47	13.24	11.75	11.06	11.04	11.38	11.79	12.1	12.28	12.42	12.55	12.53	12.03	10.68	8.22	4.73	0.58	-3.67	-7.44	-10.43	-12.64	-14.34	-15.92	-17.73	-20.01	-22.87	-26.25	-29.91	-33.39	-35.94	-36.64	-34.67	-29.61	-21.74	-12.01	-1.84	7.37	14.64	19.63	22.57	23.98	24.33	23.91	22.78	20.93	18.45	15.58	12.74	10.43	9	8.55	8.91	9.65	10.3	10.56	10.42	10.09	9.88	9.88	9.94	9.66	8.64	6.67	3.89	0.65	-2.61	-5.58	-8.17	-10.5	-12.78	-15.22	-17.95	-21.1	-24.66	-28.49	-32.21	-35.14	-36.47	-35.41	-31.53	-24.92	-16.27	-6.68	2.67	10.78	17.11	21.51	24.17	25.34	25.24	24.02	21.8	18.83	15.53	12.49	10.25	9.18	9.28	10.24	11.58	12.82	13.71	14.23	14.52	14.64	14.52	13.95	12.68	10.59	7.74	4.46
12.74	10.43	9	8.55	8.91	9.65	10.3	10.56	10.42	10.09	9.88	9.88	9.94	9.66	8.64	6.67	3.89	0.65	-2.61	-5.58	-8.17	-10.5	-12.78	-15.22	-17.95	-21.1	-24.66	-28.49	-32.21	-35.14	-36.47	-35.41	-31.53	-24.92	-16.27	-6.68	2.67	10.78	17.11	21.51	24.17	25.34	25.24	24.02	21.8	18.83	15.53	12.49	10.25	9.18	9.28	10.24	11.58	12.82	13.71	14.23	14.52	14.64	14.52	13.95	12.68	10.59	7.74	4.46	1.12	-1.93	-4.52	-6.69	-8.63	-10.57	-12.72	-15.23	-18.13	-21.4	-24.94	-28.55	-31.84	-34.2	-34.89	-33.14	-28.54	-21.23	-12	-2.09	7.18	14.84	20.4	23.94	25.78	26.26	25.59	23.89	21.31	18.19	15.03	12.38	10.65	10.04	10.47	11.64	13.2	14.79	16.16	17.09	17.49	17.3	16.55	15.28	13.54	11.34	8.71	5.71	2.48	-0.79	-3.87	-6.64	-9.07	-11.27	-13.4	-15.61	-18.01	-20.73	-23.83	-27.29	-30.81	-33.8	-35.37	-34.61
1.12	-1.93	-4.52	-6.69	-8.63	-10.57	-12.72	-15.23	-18.13	-21.4	-24.94	-28.55	-31.84	-34.2	-34.89	-33.14	-28.54	-21.23	-12	-2.09	7.18	14.84	20.4	23.94	25.78	26.26	25.59	23.89	21.31	18.19	15.03	12.38	10.65	10.04	10.47	11.64	13.2	14.79	16.16	17.09	17.49	17.3	16.55	15.28	13.54	11.34	8.71	5.71	2.48	-0.79	-3.87	-6.64	-9.07	-11.27	-13.4	-15.61	-18.01	-20.73	-23.83	-27.29	-30.81	-33.8	-35.37	-34.61	-30.87	-24.08	-14.88	-4.46	5.8	14.68	21.42	25.79	28	28.42	27.48	25.52	22.81	19.64	16.37	13.44	11.26	10.07	9.86	10.35	11.17	11.99	12.66	13.23	13.78	14.34	14.76	14.74	13.96	12.23	9.58	6.25	2.57	-1.18	-4.77	-8.05	-10.93	-13.32	-15.24	-16.87	-18.54	-20.65	-23.5	-27	-30.63	-33.47	-34.51	-32.94	-28.41	-21.17	-11.96	-1.84	8.05	16.71	23.42	27.76	29.66	29.35	27.25	23.98	20.17	16.4	13.09	10.5
-30.87	-24.08	-14.88	-4.46	5.8	14.68	21.42	25.79	28	28.42	27.48	25.52	22.81	19.64	16.37	13.44	11.26	10.07	9.86	10.35	11.17	11.99	12.66	13.23	13.78	14.34	14.76	14.74	13.96	12.23	9.58	6.25	2.57	-1.18	-4.77	-8.05	-10.93	-13.32	-15.24	-16.87	-18.54	-20.65	-23.5	-27	-30.63	-33.47	-34.51	-32.94	-28.41	-21.17	-11.96	-1.84	8.05	16.71	23.42	27.76	29.66	29.35	27.25	23.98	20.17	16.4	13.09	10.5	8.71	7.71	7.37	7.58	8.2	9.05	9.94	10.67	11.13	11.24	11.05	10.58	9.84	8.69	7.01	4.73	1.93	-1.11	-4.03	-6.53	-8.51	-10.14	-11.77	-13.8	-16.49	-19.82	-23.47	-26.86	-29.31	-30.1	-28.7	-24.82	-18.59	-10.51	-1.47	7.53	15.45	21.55	25.4	26.9	26.27	23.94	20.46	16.45	12.48	9.04	6.42	4.69	3.73	3.31	3.22	3.33	3.61	4.05	4.67	5.34	5.81	5.76	4.85	2.83	-0.27	-4.22	-8.53	-12.69
8.71	7.71	7.37	7.58	8.2	9.05	9.94	10.67	11.13	11.24	11.05	10.58	9.84	8.69	7.01	4.73	1.93	-1.11	-4.03	-6.53	-8.51	-10.14	-11.77	-13.8	-16.49	-19.82	-23.47	-26.86	-29.31	-30.1	-28.7	-24.82	-18.59	-10.51	-1.47	7.53	15.45	21.55	25.4	26.9	26.27	23.94	20.46	16.45	12.48	9.04	6.42	4.69	3.73	3.31	3.22	3.33	3.61	4.05	4.67	5.34	5.81	5.76	4.85	2.83	-0.27	-4.22	-8.53	-12.69	-16.27	-19.1	-21.26	-23.05	-24.89	-27.11	-29.9	-33.15	-36.34	-38.59	-38.82	-36.05	-29.79	-20.32	-8.76	3.2	13.84	21.83	26.59	28.25	27.45	24.97	21.51	17.56	13.47	9.53	6.02	3.17	1.16	0.02	-0.38	-0.26	0.19	0.81	1.48	2.06	2.42	2.32	1.52	-0.13	-2.66	-5.95	-9.74	-13.68	-17.45	-20.86	-23.91	-26.73	-29.57	-32.54	-35.43	-37.67	-38.39	-36.76	-32.25	-25.01	-15.81	-5.89	3.43	11.13	16.65	19.9	21.09	20.61
-16.27	-19.1	-21.26	-23.05	-24.89	-27.11	-29.9	-33.15	-36.34	-38.59	-38.82	-36.05	-29.79	-20.32	-8.76	3.2	13.84	21.83	26.59	28.25	27.45	24.97	21.51	17.56	13.47	9.53	6.02	3.17	1.16	0.02	-0.38	-0.26	0.19	0.81	1.48	2.06	2.42	2.32	1.52	-0.13	-2.66	-5.95	-9.74	-13.68	-17.45	-20.86	-23.91	-26.73	-29.57	-32.54	-35.43	-37.67	-38.39	-36.76	-32.25	-25.01	-15.81	-5.89	3.43	11.13	16.65	19.9	21.09	20.61	18.8	16.04	12.68	9.13	5.78	3	1.02	-0.08	-0.35	0.04	0.88	1.93	2.98	3.83	4.23	4.02	3.08	1.49	-0.58	-2.87	-5.16	-7.42	-9.77	-12.48	-15.81	-19.83	-24.3	-28.62	-31.97	-33.41	-32.2	-28.01	-21.07	-12.15	-2.41	7.01	15.15	21.52	25.96	28.53	29.35	28.58	26.41	23.25	19.63	16.18	13.36	11.39	10.15	9.4	8.9	8.52	8.29	8.28	8.44	8.56	8.35	7.49	5.82	3.37	0.31	-3.08	-6.57	-10.02
18.8	16.04	12.68	9.13	5.78	3	1.02	-0.08	-0.35	0.04	0.88	1.93	2.98	3.83	4.23	4.02	3.08	1.49	-0.58	-2.87	-5.16	-7.42	-9.77	-12.48	-15.81	-19.83	-24.3	-28.62	-31.97	-33.41	-32.2	-28.01	-21.07	-12.15	-2.41	7.01	15.15	21.52	25.96	28.53	29.35	28.58	26.41	23.25	19.63	16.18	13.36	11.39	10.15	9.4	8.9	8.52	8.29	8.28	8.44	8.56	8.35	7.49	5.82	3.37	0.31	-3.08	-6.57	-10.02	-13.38	-16.71	-20.13	-23.7	-27.37	-30.87	-33.66	-35.02	-34.18	-30.58	-24.16	-15.42	-5.39	4.6	13.34	19.98	24.18	26.05	25.97	24.4	21.77	18.44	14.72	10.93	7.34	4.21	1.66	-0.23	-1.45	-2.02	-2.01	-1.55	-0.85	-0.22	0.03	-0.35	-1.48	-3.31	-5.62	-8.15	-10.71	-13.22	-15.74	-18.46	-21.62	-25.41	-29.84	-34.6	-39.01	-42.09	-42.75	-40.16	-34.07	-24.91	-13.77	-2.08	8.75	17.64	24	27.71	28.97	28.21	25.95	22.73
-13.38	-16.71	-20.13	-23.7	-27.37	-30.87	-33.66	-35.02	-34.18	-30.58	-24.16	-15.42	-5.39	4.6	13.34	19.98	24.18	26.05	25.97	24.4	21.77	18.44	14.72	10.93	7.34	4.21	1.66	-0.23	-1.45	-2.02	-2.01	-1.55	-0.85	-0.22	0.03	-0.35	-1.48	-3.31	-5.62	-8.15	-10.71	-13.22	-15.74	-18.46	-21.62	-25.41	-29.84	-34.6	-39.01	-42.09	-42.75	-40.16	-34.07	-24.91	-13.77	-2.08	8.75	17.64	24	27.71	28.97	28.21	25.95	22.73	19.06	15.37	12.02	9.26	7.28	6.13	5.82	6.22	7.13	8.27	9.38	10.2	10.48	10.03	8.7	6.42	3.32	-0.37	-4.24	-7.95	-11.3	-14.31	-17.3	-20.66	-24.69	-29.34	-34.05	-37.86	-39.57	-38.21	-33.32	-25.18	-14.71	-3.26	7.84	17.48	25.02	30.21	33.15	34.13	33.56	31.86	29.44	26.62	23.66	20.81	18.34	16.53	15.61	15.6	16.33	17.41	18.47	19.19	19.46	19.25	18.55	17.25	15.21	12.36	8.8	4.85	0.94	-2.54
19.06	15.37	12.02	9.26	7.28	6.13	5.82	6.22	7.13	8.27	9.38	10.2	10.48	10.03	8.7	6.42	3.32	-0.37	-4.24	-7.95	-11.3	-14.31	-17.3	-20.66	-24.69	-29.34	-34.05	-37.86	-39.57	-38.21	-33.32	-25.18	-14.71	-3.26	7.84	17.48	25.02	30.21	33.15	34.13	33.56	31.86	29.44	26.62	23.66	20.81	18.34	16.53	15.61	15.6	16.33	17.41	18.47	19.19	19.46	19.25	18.55	17.25	15.21	12.36	8.8	4.85	0.94	-2.54	-5.42	-7.79	-10	-12.48	-15.65	-19.75	-24.68	-29.93	-34.62	-37.61	-37.79	-34.42	-27.4	-17.35	-5.48	6.74	17.92	27.07	33.76	38	40.11	40.52	39.63	37.81	35.33	32.48	29.51	26.66	24.12	22.12	20.81	20.3	20.57	21.43	22.56	23.55	24	23.71	22.65	20.93	18.76	16.3	13.64	10.82	7.88	4.88	1.93	-0.87	-3.49	-5.92	-8.24	-10.55	-12.95	-15.51	-18.29	-21.32	-24.64	-28.2	-31.84	-35.14	-37.4	-37.84	-35.7	-30.53
-5.42	-7.79	-10	-12.48	-15.65	-19.75	-24.68	-29.93	-34.62	-37.61	-37.79	-34.42	-27.4	-17.35	-5.48	6.74	17.92	27.07	33.76	38	40.11	40.52	39.63	37.81	35.33	32.48	29.51	26.66	24.12	22.12	20.81	20.3	20.57	21.43	22.56	23.55	24	23.71	22.65	20.93	18.76	16.3	13.64	10.82	7.88	4.88	1.93	-0.87	-3.49	-5.92	-8.24	-10.55	-12.95	-15.51	-18.29	-21.32	-24.64	-28.2	-31.84	-35.14	-37.4	-37.84	-35.7	-30.53	-22.46	-12.21	-1.01	9.7	18.68	25.21	29.16	30.93	31.13	30.28	28.71	26.59	24.06	21.42	19.03	17.28	16.34	16.17	16.5	17.05	17.56	17.95	18.19	18.27	18.09	17.47	16.28	14.43	12	9.22	6.37	3.7	1.35	-0.75	-2.76	-4.88	-7.23	-9.79	-12.42	-15	-17.42	-19.75	-22.18	-24.95	-28.21	-31.84	-35.34	-37.86	-38.49	-36.49	-31.57	-24.08	-14.86	-5.05	4.24	12.08	17.94	21.65	23.33	23.33	22.05	19.92	17.31	14.53
-22.46	-12.21	-1.01	9.7	18.68	25.21	29.16	30.93	31.13	30.28	28.71	26.59	24.06	21.42	19.03	17.28	16.34	16.17	16.5	17.05	17.56	17.95	18.19	18.27	18.09	17.47	16.28	14.43	12	9.22	6.37	3.7	1.35	-0.75	-2.76	-4.88	-7.23	-9.79	-12.42	-15	-17.42	-19.75	-22.18	-24.95	-28.21	-31.84	-35.34	-37.86	-38.49	-36.49	-31.57	-24.08	-14.86	-5.05	4.24	12.08	17.94	21.65	23.33	23.33	22.05	19.92	17.31	14.53	11.92	9.75	8.28	7.66	7.88	8.78	10.09	11.53	12.86	13.85	14.35	14.25	13.54	12.32	10.76	8.99	7.03	4.78	2.08	-1.12	-4.7	-8.33	-11.63	-14.27	-16.2	-17.62	-18.96	-20.69	-23.11	-26.32	-30.06	-33.83	-36.88	-38.39	-37.64	-34.18	-27.99	-19.54	-9.74	0.29	9.43	16.8	21.88	24.61	25.23	24.25	22.24	19.73	17.13	14.75	12.76	11.28	10.34	9.91	9.84	9.96	10.03	9.88	9.5	8.98	8.52	8.19	7.88	7.31
11.92	9.75	8.28	7.66	7.88	8.78	10.09	11.53	12.86	13.85	14.35	14.25	13.54	12.32	10.76	8.99	7.03	4.78	2.08	-1.12	-4.7	-8.33	-11.63	-14.27	-16.2	-17.62	-18.96	-20.69	-23.11	-26.32	-30.06	-33.83	-36.88	-38.39	-37.64	-34.18	-27.99	-19.54	-9.74	0.29	9.43	16.8	21.88	24.61	25.23	24.25	22.24	19.73	17.13	14.75	12.76	11.28	10.34	9.91	9.84	9.96	10.03	9.88	9.5	8.98	8.52	8.19	7.88	7.31	6.1	4.05	1.18	-2.19	-5.61	-8.68	-11.2	-13.21	-14.94	-16.72	-18.87	-21.64	-25.13	-29.21	-33.42	-37	-38.97	-38.44	-34.92	-28.52	-19.95	-10.33	-0.85	7.52	14.14	18.74	21.33	22.11	21.35	19.45	16.88	14.15	11.74	9.92	8.78	8.22	8.04	8.05	8.13	8.24	8.41	8.64	8.86	8.97	8.85	8.35	7.34	5.72	3.45	0.57	-2.71	-6.08	-9.2	-11.84	-13.95	-15.7	-17.38	-19.34	-21.82	-24.86	-28.2	-31.28	-33.28	-33.38
6.1	4.05	1.18	-2.19	-5.61	-8.68	-11.2	-13.21	-14.94	-16.72	-18.87	-21.64	-25.13	-29.21	-33.42	-37	-38.97	-38.44	-34.92	-28.52	-19.95	-10.33	-0.85	7.52	14.14	18.74	21.33	22.11	21.35	19.45	16.88	14.15	11.74	9.92	8.78	8.22	8.04	8.05	8.13	8.24	8.41	8.64	8.86	8.97	8.85	8.35	7.34	5.72	3.45	0.57	-2.71	-6.08	-9.2	-11.84	-13.95	-15.7	-17.38	-19.34	-21.82	-24.86	-28.2	-31.28	-33.28	-33.38	-30.97	-25.87	-18.48	-9.63	-0.36	8.41	16	22.04	26.33	28.75	29.32	28.14	25.58	22.17	18.58	15.36	12.85	11.14	10.07	9.46	9.1	8.89	8.79	8.79	8.88	8.97	8.94	8.63	7.84	6.37	4.12	1.08	-2.55	-6.43	-10.15	-13.31	-15.72	-17.42	-18.71	-20.07	-21.96	-24.64	-27.99	-31.52	-34.39	-35.65	-34.53	-30.65	-24.2	-15.88	-6.72	2.16	9.87	15.89	20.09	22.63	23.82	23.91	23.1	21.52	19.36	16.88	14.47	12.46
-30.97	-25.87	-18.48	-9.63	-0.36	8.41	16	22.04	26.33	28.75	29.32	28.14	25.58	22.17	18.58	15.36	12.85	11.14	10.07	9.46	9.1	8.89	8.79	8.79	8.88	8.97	8.94	8.63	7.84	6.37	4.12	1.08	-2.55	-6.43	-10.15	-13.31	-15.72	-17.42	-18.71	-20.07	-21.96	-24.64	-27.99	-31.52	-34.39	-35.65	-34.53	-30.65	-24.2	-15.88	-6.72	2.16	9.87	15.89	20.09	22.63	23.82	23.91	23.1	21.52	19.36	16.88	14.47	12.46	11.07	10.22	9.71	9.28	8.83	8.44	8.28	8.39	8.59	8.45	7.52	5.56	2.67	-0.74	-4.15	-7.15	-9.59	-11.64	-13.57	-15.69	-18.21	-21.18	-24.54	-28.06	-31.31	-33.62	-34.24	-32.49	-28.07	-21.2	-12.59	-3.27	5.68	13.41	19.41	23.55	25.9	26.69	26.2	24.72	22.59	20.14	17.64	15.31	13.26	11.5	10.05	8.9	8.11	7.76	7.87	8.35	8.96	9.35	9.12	8.01	5.95	3.1	-0.25	-3.76	-7.14	-10.26	-13.09	-15.78
