-0	-0	-0	-0	-0	-0	-0	-0	-0	-0	0	0.01	0.01	-0	-0.03	-0.05	-0.05	0	0.13	0.36	0.66	1.01	1.37	1.72	2.06	2.4	2.79	3.24	3.8	4.42	5.06	5.66	6.2	6.68	7.15	7.68	8.31	9.14	10.09	11.04	11.88	12.56	13.14	13.76	14.65	15.96	17.91	20.32	22.9	25.38	27.58	29.57	31.68	34.32	37.81	42.54	48.15	54.1	59.83	64.97	69.58	74.14	79.34	85.71	93.76	103	112.62	121.73	129.77	136.75	143.3	150.75	157.77	166.64	177.95	191.79	206.97	220.57	228.25	225.36	208.53	176.87	132.76	80.05	23.07	-34.94	-92.44	-149.16	-205.23	-260.37	-313.74	-363.87	-409.83	-450.91	-486.5	-515.74	-537.23	-549.22	-549.96	-538.37	-514.21	-478.67	-433.88	-382.45	-327.02	-269.84	-212.63	-156.66	-102.95	-52.37	-5.9	35.58	71.43	101.35	125.5	144.38	158.69	169.15	176.37	180.75	182.57	182.07	179.51	175.23	169.65	163.18	156.15	148.81
93.76	103	112.62	121.73	129.77	136.75	143.3	150.75	157.77	166.64	177.95	191.79	206.97	220.57	228.25	225.36	208.53	176.87	132.76	80.05	23.07	-34.94	-92.44	-149.16	-205.23	-260.37	-313.74	-363.87	-409.83	-450.91	-486.5	-515.74	-537.23	-549.22	-549.96	-538.37	-514.21	-478.67	-433.88	-382.45	-327.02	-269.84	-212.63	-156.66	-102.95	-52.37	-5.9	35.58	71.43	101.35	125.5	144.38	158.69	169.15	176.37	180.75	182.57	182.07	179.51	175.23	169.65	163.18	156.15	148.81	141.3	133.69	126.02	118.33	110.69	103.16	95.8	88.68	81.83	75.25	68.95	62.95	57.25	51.86	46.78	42.03	37.59	33.45	29.61	26.07	22.81	19.83	17.11	14.67	12.48	10.54	8.83	7.35	6.07	4.97	4.05	3.27	2.62	2.09	1.65	1.3	1.01	0.79	0.61	0.47	0.37	0.28	0.22	0.18	0.14	0.12	0.11	0.11	0.11	0.12	0.14	0.17	0.2	0.23	0.27	0.31	0.35	0.39	0.44	0.49	0.54	0.59	0.64	0.69
141.3	133.69	126.02	118.33	110.69	103.16	95.8	88.68	81.83	75.25	68.95	62.95	57.25	51.86	46.78	42.03	37.59	33.45	29.61	26.07	22.81	19.83	17.11	14.67	12.48	10.54	8.83	7.35	6.07	4.97	4.05	3.27	2.62	2.09	1.65	1.3	1.01	0.79	0.61	0.47	0.37	0.28	0.22	0.18	0.14	0.12	0.11	0.11	0.11	0.12	0.14	0.17	0.2	0.23	0.27	0.31	0.35	0.39	0.44	0.49	0.54	0.59	0.64	0.69	0.75	0.82	0.89	0.96	1.05	1.14	1.25	1.37	1.5	1.64	1.81	1.99	2.2	2.42	2.68	2.95	3.26	3.59	3.96	4.36	4.8	5.27	5.78	6.32	6.91	7.54	8.21	8.92	9.69	10.49	11.34	12.24	13.18	14.18	15.24	16.36	17.55	18.78	20.05	21.31	22.5	23.54	24.31	24.71	24.6	23.88	22.48	20.35	17.51	14.05	10.06	5.74	1.29	-3.09	-7.21	-10.91	-14.06	-16.6	-18.46	-19.64	-20.15	-20.06	-19.49	-18.56
0.75	0.82	0.89	0.96	1.05	1.14	1.25	1.37	1.5	1.64	1.81	1.99	2.2	2.42	2.68	2.95	3.26	3.59	3.96	4.36	4.8	5.27	5.78	6.32	6.91	7.54	8.21	8.92	9.69	10.49	11.34	12.24	13.18	14.18	15.24	16.36	17.55	18.78	20.05	21.31	22.5	23.54	24.31	24.71	24.6	23.88	22.48	20.35	17.51	14.05	10.06	5.74	1.29	-3.09	-7.21	-10.91	-14.06	-16.6	-18.46	-19.64	-20.15	-20.06	-19.49	-18.56	-17.4	-16.15	-14.86	-13.56	-12.24	-10.83	-9.34	-7.81	-6.29	-4.85	-3.55	-2.42	-1.35	-0.23	1.14	2.77	4.59	6.47	8.21	9.64	10.69	11.51	12.39	13.73	15.53	17.67	19.84	21.6	22.59	22.68	22.12	21.46	21.47	22.23	23.58	25.05	25.93	25.57	23.71	20.64	17.07	13.97	11.42	9.22	6.72	2.82	-3.82	-14.79	-31.71	-56.24	-84.6	-113.76	-139.78	-158.52	-166.92	-164.1	-151.79	-133.57	-113.52	-94.66	-78.95	-66.49	-56.49	-48.12
-17.4	-16.15	-14.86	-13.56	-12.24	-10.83	-9.34	-7.81	-6.29	-4.85	-3.55	-2.42	-1.35	-0.23	1.14	2.77	4.59	6.47	8.21	9.64	10.69	11.51	12.39	13.73	15.53	17.67	19.84	21.6	22.59	22.68	22.12	21.46	21.47	22.23	23.58	25.05	25.93	25.57	23.71	20.64	17.07	13.97	11.42	9.22	6.72	2.82	-3.82	-14.79	-31.71	-56.24	-84.6	-113.76	-139.78	-158.52	-166.92	-164.1	-151.79	-133.57	-113.52	-94.66	-78.95	-66.49	-56.49	-48.12	-40.96	-34.92	-29.75	-24.82	-19.1	-12.18	-3.96	5.05	13.82	21.23	26.52	29.59	31.01	31.67	32.1	32.6	33.08	33.27	32.9	31.95	30.64	29.36	28.52	28.21	28.32	28.51	28.34	27.37	25.45	22.72	19.61	16.68	14.32	12.61	11.35	10.07	8.32	5.81	2.57	-1.07	-4.62	-7.55	-9.44	-10.08	-9.41	-7.54	-4.59	-0.76	3.69	8.38	12.82	16.5	19.07	20.44	20.83	20.69	20.44	20.29	20.23	20.05	19.54	18.6	17.34	16.01
-40.96	-34.92	-29.75	-24.82	-19.1	-12.18	-3.96	5.05	13.82	21.23	26.52	29.59	31.01	31.67	32.1	32.6	33.08	33.27	32.9	31.95	30.64	29.36	28.52	28.21	28.32	28.51	28.34	27.37	25.45	22.72	19.61	16.68	14.32	12.61	11.35	10.07	8.32	5.81	2.57	-1.07	-4.62	-7.55	-9.44	-10.08	-9.41	-7.54	-4.59	-0.76	3.69	8.38	12.82	16.5	19.07	20.44	20.83	20.69	20.44	20.29	20.23	20.05	19.54	18.6	17.34	16.01	14.83	13.91	13.15	12.35	11.29	9.82	7.95	5.77	3.43	1.05	-1.28	-3.48	-5.51	-7.36	-9.09	-10.85	-12.81	-15.1	-17.74	-20.46	-22.84	-24.36	-24.58	-23.31	-20.64	-16.92	-12.64	-8.29	-4.22	-0.59	2.6	5.42	7.96	10.19	12	13.26	13.9	13.98	13.71	13.35	13.11	13.03	13.04	13.04	12.95	12.8	12.65	12.48	12.16	11.45	10.08	7.94	5.14	2	-1.06	-3.65	-5.63	-7.09	-8.37	-9.91	-12.04	-14.82	-18	-21.05
14.83	13.91	13.15	12.35	11.29	9.82	7.95	5.77	3.43	1.05	-1.28	-3.48	-5.51	-7.36	-9.09	-10.85	-12.81	-15.1	-17.74	-20.46	-22.84	-24.36	-24.58	-23.31	-20.64	-16.92	-12.64	-8.29	-4.22	-0.59	2.6	5.42	7.96	10.19	12	13.26	13.9	13.98	13.71	13.35	13.11	13.03	13.04	13.04	12.95	12.8	12.65	12.48	12.16	11.45	10.08	7.94	5.14	2	-1.06	-3.65	-5.63	-7.09	-8.37	-9.91	-12.04	-14.82	-18	-21.05	-23.31	-24.29	-23.79	-21.96	-19.16	-15.79	-12.13	-8.3	-4.34	-0.32	3.5	6.8	9.32	10.99	12.01	12.72	13.39	14.02	14.44	14.34	13.6	12.4	11.12	10.22	9.96	10.26	10.72	10.87	10.3	8.93	6.95	4.72	2.54	0.59	-1.16	-2.86	-4.65	-6.57	-8.6	-10.7	-12.89	-15.25	-17.84	-20.6	-23.2	-25.17	-25.96	-25.23	-22.95	-19.49	-15.42	-11.3	-7.48	-3.98	-0.64	2.71	6.04	9.11	11.54	13.01	13.51	13.26	12.7	12.21
-23.31	-24.29	-23.79	-21.96	-19.16	-15.79	-12.13	-8.3	-4.34	-0.32	3.5	6.8	9.32	10.99	12.01	12.72	13.39	14.02	14.44	14.34	13.6	12.4	11.12	10.22	9.96	10.26	10.72	10.87	10.3	8.93	6.95	4.72	2.54	0.59	-1.16	-2.86	-4.65	-6.57	-8.6	-10.7	-12.89	-15.25	-17.84	-20.6	-23.2	-25.17	-25.96	-25.23	-22.95	-19.49	-15.42	-11.3	-7.48	-3.98	-0.64	2.71	6.04	9.11	11.54	13.01	13.51	13.26	12.7	12.21	12	12.07	12.25	12.35	12.3	12.14	12	12.01	12.17	12.28	12.06	11.23	9.71	7.63	5.34	3.15	1.24	-0.47	-2.29	-4.53	-7.32	-10.53	-13.74	-16.4	-18.02	-18.31	-17.23	-14.91	-11.61	-7.58	-3	1.95	6.97	11.59	15.19	17.2	17.36	15.96	13.67	11.36	9.69	8.9	8.73	8.73	8.53	8.02	7.38	6.92	6.79	6.87	6.87	6.48	5.49	3.96	2.15	0.38	-1.12	-2.32	-3.34	-4.39	-5.68	-7.31	-9.28	-11.47
12	12.07	12.25	12.35	12.3	12.14	12	12.01	12.17	12.28	12.06	11.23	9.71	7.63	5.34	3.15	1.24	-0.47	-2.29	-4.53	-7.32	-10.53	-13.74	-16.4	-18.02	-18.31	-17.23	-14.91	-11.61	-7.58	-3	1.95	6.97	11.59	15.19	17.2	17.36	15.96	13.67	11.36	9.69	8.9	8.73	8.73	8.53	8.02	7.38	6.92	6.79	6.87	6.87	6.48	5.49	3.96	2.15	0.38	-1.12	-2.32	-3.34	-4.39	-5.68	-7.31	-9.28	-11.47	-13.7	-15.72	-17.23	-17.9	-17.48	-15.88	-13.21	-9.78	-5.97	-2.1	1.59	5.01	8.05	10.58	12.41	13.38	13.46	12.8	11.71	10.51	9.42	8.52	7.77	7.11	6.54	6.15	6.04	6.22	6.59	6.92	6.91	6.34	5.13	3.37	1.26	-1.02	-3.33	-5.68	-8.12	-10.71	-13.36	-15.84	-17.8	-18.84	-18.72	-17.38	-14.96	-11.73	-7.99	-4	0.08	4.1	7.89	11.24	13.88	15.54	16.02	15.32	13.65	11.4	9.11	7.22	6.01	5.52
-13.7	-15.72	-17.23	-17.9	-17.48	-15.88	-13.21	-9.78	-5.97	-2.1	1.59	5.01	8.05	10.58	12.41	13.38	13.46	12.8	11.71	10.51	9.42	8.52	7.77	7.11	6.54	6.15	6.04	6.22	6.59	6.92	6.91	6.34	5.13	3.37	1.26	-1.02	-3.33	-5.68	-8.12	-10.71	-13.36	-15.84	-17.8	-18.84	-18.72	-17.38	-14.96	-11.73	-7.99	-4	0.08	4.1	7.89	11.24	13.88	15.54	16.02	15.32	13.65	11.4	9.11	7.22	6.01	5.52	5.58	5.86	6.03	5.89	5.35	4.47	3.35	2.06	0.65	-0.9	-2.61	-4.55	-6.76	-9.26	-12.03	-14.92	-17.68	-19.9	-21.17	-21.13	-19.58	-16.57	-12.39	-7.47	-2.34	2.51	6.67	9.87	12.04	13.27	13.72	13.61	13.12	12.35	11.37	10.22	9	7.87	6.98	6.36	5.95	5.56	5	4.16	3.07	1.84	0.63	-0.5	-1.61	-2.88	-4.52	-6.67	-9.26	-11.99	-14.35	-15.78	-15.86	-14.43	-11.67	-7.98	-3.83	0.38	4.42	8.13
5.58	5.86	6.03	5.89	5.35	4.47	3.35	2.06	0.65	-0.9	-2.61	-4.55	-6.76	-9.26	-12.03	-14.92	-17.68	-19.9	-21.17	-21.13	-19.58	-16.57	-12.39	-7.47	-2.34	2.51	6.67	9.87	12.04	13.27	13.72	13.61	13.12	12.35	11.37	10.22	9	7.87	6.98	6.36	5.95	5.56	5	4.16	3.07	1.84	0.63	-0.5	-1.61	-2.88	-4.52	-6.67	-9.26	-11.99	-14.35	-15.78	-15.86	-14.43	-11.67	-7.98	-3.83	0.38	4.42	8.13	11.39	14.05	15.9	16.81	16.82	16.14	15.11	14.05	13.16	12.43	11.75	10.99	10.07	9.08	8.11	7.27	6.49	5.59	4.34	2.56	0.21	-2.6	-5.73	-9.04	-12.46	-15.9	-19.2	-22.08	-24.19	-25.18	-24.8	-22.99	-19.92	-15.91	-11.39	-6.77	-2.36	1.65	5.16	8.12	10.46	12.04	12.75	12.59	11.77	10.66	9.73	9.32	9.51	10.12	10.83	11.29	11.32	10.95	10.35	9.71	9.05	8.25	7.04	5.16	2.49	-0.85	-4.57	-8.38
11.39	14.05	15.9	16.81	16.82	16.14	15.11	14.05	13.16	12.43	11.75	10.99	10.07	9.08	8.11	7.27	6.49	5.59	4.34	2.56	0.21	-2.6	-5.73	-9.04	-12.46	-15.9	-19.2	-22.08	-24.19	-25.18	-24.8	-22.99	-19.92	-15.91	-11.39	-6.77	-2.36	1.65	5.16	8.12	10.46	12.04	12.75	12.59	11.77	10.66	9.73	9.32	9.51	10.12	10.83	11.29	11.32	10.95	10.35	9.71	9.05	8.25	7.04	5.16	2.49	-0.85	-4.57	-8.38	-12.01	-15.31	-18.12	-20.24	-21.44	-21.54	-20.54	-18.63	-16.14	-13.39	-10.56	-7.66	-4.57	-1.21	2.4	6.09	9.59	12.6	14.86	16.24	16.75	16.55	15.88	15.04	14.25	13.63	13.21	12.92	12.67	12.35	11.83	10.94	9.57	7.68	5.36	2.78	0.23	-2.1	-4.06	-5.68	-7.13	-8.68	-10.59	-13.01	-15.92	-19.1	-22.16	-24.61	-26.02	-26.01	-24.47	-21.49	-17.35	-12.45	-7.23	-1.98	3.11	7.95	12.49	16.53	19.82	22.11	23.3	23.48
-12.01	-15.31	-18.12	-20.24	-21.44	-21.54	-20.54	-18.63	-16.14	-13.39	-10.56	-7.66	-4.57	-1.21	2.4	6.09	9.59	12.6	14.86	16.24	16.75	16.55	15.88	15.04	14.25	13.63	13.21	12.92	12.67	12.35	11.83	10.94	9.57	7.68	5.36	2.78	0.23	-2.1	-4.06	-5.68	-7.13	-8.68	-10.59	-13.01	-15.92	-19.1	-22.16	-24.61	-26.02	-26.01	-24.47	-21.49	-17.35	-12.45	-7.23	-1.98	3.11	7.95	12.49	16.53	19.82	22.11	23.3	23.48	23	22.31	21.75	21.46	21.32	21.1	20.58	19.69	18.55	17.39	16.41	15.65	14.99	14.15	12.88	11.05	8.77	6.29	3.91	1.81	-0.06	-1.87	-3.9	-6.32	-9.15	-12.26	-15.42	-18.35	-20.81	-22.53	-23.28	-22.85	-21.16	-18.25	-14.32	-9.68	-4.72	0.16	4.6	8.34	11.26	13.33	14.61	15.22	15.3	15.02	14.6	14.28	14.28	14.67	15.33	16.07	16.63	16.9	16.9	16.7	16.37	15.85	14.97	13.64	11.84	9.72	7.46	5.21
23	22.31	21.75	21.46	21.32	21.1	20.58	19.69	18.55	17.39	16.41	15.65	14.99	14.15	12.88	11.05	8.77	6.29	3.91	1.81	-0.06	-1.87	-3.9	-6.32	-9.15	-12.26	-15.42	-18.35	-20.81	-22.53	-23.28	-22.85	-21.16	-18.25	-14.32	-9.68	-4.72	0.16	4.6	8.34	11.26	13.33	14.61	15.22	15.3	15.02	14.6	14.28	14.28	14.67	15.33	16.07	16.63	16.9	16.9	16.7	16.37	15.85	14.97	13.64	11.84	9.72	7.46	5.21	2.96	0.61	-1.9	-4.62	-7.5	-10.51	-13.58	-16.65	-19.56	-22.01	-23.53	-23.66	-22.12	-18.91	-14.41	-9.16	-3.7	1.61	6.63	11.36	15.79	19.78	23.1	25.49	26.86	27.34	27.17	26.62	25.88	25.05	24.15	23.31	22.62	22.23	22.16	22.28	22.33	22	21.08	19.51	17.41	14.96	12.33	9.56	6.63	3.44	-0.05	-3.83	-7.82	-11.89	-15.83	-19.39	-22.26	-24.04	-24.44	-23.35	-20.94	-17.65	-14.01	-10.43	-7.08	-3.89	-0.73	2.52
2.96	0.61	-1.9	-4.62	-7.5	-10.51	-13.58	-16.65	-19.56	-22.01	-23.53	-23.66	-22.12	-18.91	-14.41	-9.16	-3.7	1.61	6.63	11.36	15.79	19.78	23.1	25.49	26.86	27.34	27.17	26.62	25.88	25.05	24.15	23.31	22.62	22.23	22.16	22.28	22.33	22	21.08	19.51	17.41	14.96	12.33	9.56	6.63	3.44	-0.05	-3.83	-7.82	-11.89	-15.83	-19.39	-22.26	-24.04	-24.44	-23.35	-20.94	-17.65	-14.01	-10.43	-7.08	-3.89	-0.73	2.52	5.75	8.72	11.15	12.79	13.54	13.44	12.62	11.29	9.69	8.08	6.71	5.77	5.31	5.22	5.3	5.29	4.98	4.28	3.21	1.84	0.26	-1.39	-3	-4.46	-5.69	-6.72	-7.69	-8.88	-10.52	-12.74	-15.41	-18.18	-20.58	-22.09	-22.37	-21.3	-18.96	-15.65	-11.74	-7.61	-3.57	0.19	3.57	6.54	9.08	11.12	12.61	13.53	13.88	13.72	13.15	12.3	11.28	10.22	9.26	8.47	7.86	7.35	6.77	5.96	4.86	3.56	2.29	1.29
5.75	8.72	11.15	12.79	13.54	13.44	12.62	11.29	9.69	8.08	6.71	5.77	5.31	5.22	5.3	5.29	4.98	4.28	3.21	1.84	0.26	-1.39	-3	-4.46	-5.69	-6.72	-7.69	-8.88	-10.52	-12.74	-15.41	-18.18	-20.58	-22.09	-22.37	-21.3	-18.96	-15.65	-11.74	-7.61	-3.57	0.19	3.57	6.54	9.08	11.12	12.61	13.53	13.88	13.72	13.15	12.3	11.28	10.22	9.26	8.47	7.86	7.35	6.77	5.96	4.86	3.56	2.29	1.29	0.71	0.42	0.15	-0.47	-1.7	-3.58	-5.93	-8.48	-10.98	-13.34	-15.63	-17.94	-20.27	-22.44	-24.05	-24.66	-23.93	-21.79	-18.49	-14.5	-10.38	-6.54	-3.18	-0.24	2.43	4.98	7.42	9.64	11.43	12.61	13.08	12.87	12.18	11.23	10.33	9.67	9.38	9.41	9.63	9.87	9.94	9.71	9.08	7.98	6.4	4.41	2.17	-0.12	-2.21	-3.98	-5.43	-6.69	-8.01	-9.66	-11.81	-14.43	-17.31	-20	-21.97	-22.74	-22.05	-19.93	-16.7	-12.84
0.71	0.42	0.15	-0.47	-1.7	-3.58	-5.93	-8.48	-10.98	-13.34	-15.63	-17.94	-20.27	-22.44	-24.05	-24.66	-23.93	-21.79	-18.49	-14.5	-10.38	-6.54	-3.18	-0.24	2.43	4.98	7.42	9.64	11.43	12.61	13.08	12.87	12.18	11.23	10.33	9.67	9.38	9.41	9.63	9.87	9.94	9.71	9.08	7.98	6.4	4.41	2.17	-0.12	-2.21	-3.98	-5.43	-6.69	-8.01	-9.66	-11.81	-14.43	-17.31	-20	-21.97	-22.74	-22.05	-19.93	-16.7	-12.84	-8.85	-5.15	-1.96	0.64	2.73	4.41	5.81	7.01	7.98	8.67	8.97	8.83	8.31	7.54	6.75	6.08	5.6	5.24	4.81	4.16	3.19	1.95	0.57	-0.85	-2.24	-3.65	-5.1	-6.57	-7.97	-9.15	-10.01	-10.56	-10.93	-11.28	-11.71	-12.24	-12.67	-12.7	-11.96	-10.2	-7.35	-3.62	0.56	4.72	8.5	11.77	14.67	17.47	20.39	23.54	26.76	29.83	32.5	34.71	36.58	38.4	40.51	43.26	46.96	51.97	58.6	67	76.86	87.21
-8.85	-5.15	-1.96	0.64	2.73	4.41	5.81	7.01	7.98	8.67	8.97	8.83	8.31	7.54	6.75	6.08	5.6	5.24	4.81	4.16	3.19	1.95	0.57	-0.85	-2.24	-3.65	-5.1	-6.57	-7.97	-9.15	-10.01	-10.56	-10.93	-11.28	-11.71	-12.24	-12.67	-12.7	-11.96	-10.2	-7.35	-3.62	0.56	4.72	8.5	11.77	14.67	17.47	20.39	23.54	26.76	29.83	32.5	34.71	36.58	38.4	40.51	43.26	46.96	51.97	58.6	67	76.86	87.21	96.5	102.97	105.2	102.63	95.63	85.25	72.71	58.85	44.1	28.62	12.65	-3.28	-18.35	-31.74	-42.92	-51.78	-58.49	-63.3	-66.33	-67.43	-66.37	-63	-57.57	-50.77	-43.62	-37.17	-32.17	-28.86	-26.94	-25.81	-24.84	-23.6	-21.92	-19.84	-17.42	-14.7	-11.6	-7.93	-3.39	2.42	9.84	19.03	29.76	41.29	52.45	61.79	67.95	70	67.63	61.15	51.31	39.1	25.44	11.14	-3.18	-17.03	-30.02	-41.79	-52.07	-60.58	-67.14	-71.65	-74.04	-74.32
96.5	102.97	105.2	102.63	95.63	85.25	72.71	58.85	44.1	28.62	12.65	-3.28	-18.35	-31.74	-42.92	-51.78	-58.49	-63.3	-66.33	-67.43	-66.37	-63	-57.57	-50.77	-43.62	-37.17	-32.17	-28.86	-26.94	-25.81	-24.84	-23.6	-21.92	-19.84	-17.42	-14.7	-11.6	-7.93	-3.39	2.42	9.84	19.03	29.76	41.29	52.45	61.79	67.95	70	67.63	61.15	51.31	39.1	25.44	11.14	-3.18	-17.03	-30.02	-41.79	-52.07	-60.58	-67.14	-71.65	-74.04	-74.32	-72.66	-69.33	-64.76	-59.5	-54.13	-49.22	-45.18	-42.16	-40.02	-38.34	-36.65	-34.61	-32.14	-29.39	-26.59	-23.89	-21.21	-18.43	-15.44	-12.31	-9.24	-6.41	-3.85	-1.35	1.33	4.31	7.56	10.93	14.34	17.94	22.1	27.29	33.83	41.7	50.51	59.69	68.78	77.68	86.7	96.34	106.74	117.31	126.59	132.62	133.55	128.3	116.83	99.93	78.74	54.37	27.75	-0.13	-28.05	-54.52	-78.03	-97.53	-112.68	-123.91	-132.1	-138.18	-142.72	-145.8	-147.16	-146.51
-72.66	-69.33	-64.76	-59.5	-54.13	-49.22	-45.18	-42.16	-40.02	-38.34	-36.65	-34.61	-32.14	-29.39	-26.59	-23.89	-21.21	-18.43	-15.44	-12.31	-9.24	-6.41	-3.85	-1.35	1.33	4.31	7.56	10.93	14.34	17.94	22.1	27.29	33.83	41.7	50.51	59.69	68.78	77.68	86.7	96.34	106.74	117.31	126.59	132.62	133.55	128.3	116.83	99.93	78.74	54.37	27.75	-0.13	-28.05	-54.52	-78.03	-97.53	-112.68	-123.91	-132.1	-138.18	-142.72	-145.8	-147.16	-146.51	-143.81	-139.49	-134.33	-129.27	-124.92	-121.44	-118.47	-115.45	-111.91	-107.76	-103.1	-98.15	-92.9	-87.16	-80.72	-73.62	-66.2	-59.01	-52.49	-46.69	-41.26	-35.63	-29.4	-22.51	-15.38	-8.62	-2.83	1.72	5.03	7.39	9.16	10.65	12.09	13.64	15.35	17.26	19.32	21.5	23.77	26.18	28.86	31.92	35.35	38.85	41.94	44.03	44.76	44.04	42.19	39.62	36.64	33.24	29.1	23.91	17.64	10.77	4.25	-0.78	-3.35	-2.93	0.38	5.94	12.78	19.83
-143.81	-139.49	-134.33	-129.27	-124.92	-121.44	-118.47	-115.45	-111.91	-107.76	-103.1	-98.15	-92.9	-87.16	-80.72	-73.62	-66.2	-59.01	-52.49	-46.69	-41.26	-35.63	-29.4	-22.51	-15.38	-8.62	-2.83	1.72	5.03	7.39	9.16	10.65	12.09	13.64	15.35	17.26	19.32	21.5	23.77	26.18	28.86	31.92	35.35	38.85	41.94	44.03	44.76	44.04	42.19	39.62	36.64	33.24	29.1	23.91	17.64	10.77	4.25	-0.78	-3.35	-2.93	0.38	5.94	12.78	19.83	26.17	31.21	34.74	36.95	38.23	39.09	39.98	41.21	42.99	45.38	48.35	51.77	55.32	58.6	61.18	62.76	63.19	62.45	60.61	57.68	53.73	49	44.13	40.08	37.76	37.39	37.88	36.76	30.95	18.11	-2.01	-26.97	-52.2	-72.57	-84.26	-86.01	-79.23	-67.21	-53.8	-42.31	-34.89	-32.48	-35.02	-41.75	-51.49	-62.95	-75.04	-86.93	-97.85	-106.65	-111.48	-110.18	-101.29	-85.18	-64.52	-43.7	-27.18	-17.73	-15.67	-19.39	-26.72	-36.21	-47.32	-59.72
26.17	31.21	34.74	36.95	38.23	39.09	39.98	41.21	42.99	45.38	48.35	51.77	55.32	58.6	61.18	62.76	63.19	62.45	60.61	57.68	53.73	49	44.13	40.08	37.76	37.39	37.88	36.76	30.95	18.11	-2.01	-26.97	-52.2	-72.57	-84.26	-86.01	-79.23	-67.21	-53.8	-42.31	-34.89	-32.48	-35.02	-41.75	-51.49	-62.95	-75.04	-86.93	-97.85	-106.65	-111.48	-110.18	-101.29	-85.18	-64.52	-43.7	-27.18	-17.73	-15.67	-19.39	-26.72	-36.21	-47.32	-59.72	-71.99	-81.24	-84.07	-78.4	-64.77	-46.25	-26.65	-8.44	8.29	25.12	43.38	62.62	80.51	94.18	102.25	105.61	106.84	108.26	110.3	111.27	108.64	100.91	88.93	75.5	63.62	54.69	47.53	39	25.69	5.95	-18.97	-45.08	-67.24	-81.06	-84.47	-78.11	-64.57	-47.2	-28.88	-11.51	3.67	15.75	23.84	27.21	25.78	20.46	13.09	6.09	1.72	1.51	5.95	14.58	26.48	40.81	57.29	76.29	98.38	123.72	151.37	179.09	203.65	221.7	230.74	229.93
-71.99	-81.24	-84.07	-78.4	-64.77	-46.25	-26.65	-8.44	8.29	25.12	43.38	62.62	80.51	94.18	102.25	105.61	106.84	108.26	110.3	111.27	108.64	100.91	88.93	75.5	63.62	54.69	47.53	39	25.69	5.95	-18.97	-45.08	-67.24	-81.06	-84.47	-78.11	-64.57	-47.2	-28.88	-11.51	3.67	15.75	23.84	27.21	25.78	20.46	13.09	6.09	1.72	1.51	5.95	14.58	26.48	40.81	57.29	76.29	98.38	123.72	151.37	179.09	203.65	221.7	230.74	229.93	220.12	203.42	182.43	159.44	136.13	113.46	91.96	71.9	53.42	36.54	21.12	6.95	-6.17	-18.2	-28.95	-38.07	-45.3	-50.61	-54.2	-56.51	-58.05	-59.27	-60.53	-61.99	-63.69	-65.45	-66.96	-67.89	-67.96	-67.13	-65.61	-63.75	-61.95	-60.41	-59.1	-57.77	-56.13	-53.92	-51.06	-47.59	-43.64	-39.31	-34.77	-30.21	-25.88	-22.05	-18.99	-16.9	-15.83	-15.7	-16.26	-17.17	-18.02	-18.45	-18.21	-17.2	-15.47	-13.13	-10.36	-7.28	-4.04	-0.79	2.35	5.23
220.12	203.42	182.43	159.44	136.13	113.46	91.96	71.9	53.42	36.54	21.12	6.95	-6.17	-18.2	-28.95	-38.07	-45.3	-50.61	-54.2	-56.51	-58.05	-59.27	-60.53	-61.99	-63.69	-65.45	-66.96	-67.89	-67.96	-67.13	-65.61	-63.75	-61.95	-60.41	-59.1	-57.77	-56.13	-53.92	-51.06	-47.59	-43.64	-39.31	-34.77	-30.21	-25.88	-22.05	-18.99	-16.9	-15.83	-15.7	-16.26	-17.17	-18.02	-18.45	-18.21	-17.2	-15.47	-13.13	-10.36	-7.28	-4.04	-0.79	2.35	5.23	7.79	10.06	12.09	13.95	15.64	17.03	17.96	18.3	18.01	17.2	16.11	15.06	14.34	14.23	14.83	16.15	17.98	19.95	21.66	22.69	22.79	21.91	20.2	17.87	15.12	12.06	8.67	4.94	0.96	-3.06	-6.73	-9.67	-11.57	-12.32	-12.05	-11.05	-9.65	-8.24	-7.16	-6.76	-7.3	-8.86	-11.2	-13.66	-15.4	-15.66	-14.14	-11.19	-7.74	-4.89	-3.53	-3.95	-5.89	-8.72	-11.71	-14.33	-16.28	-17.44	-17.71	-16.98	-15.16	-12.29	-8.6	-4.49
7.79	10.06	12.09	13.95	15.64	17.03	17.96	18.3	18.01	17.2	16.11	15.06	14.34	14.23	14.83	16.15	17.98	19.95	21.66	22.69	22.79	21.91	20.2	17.87	15.12	12.06	8.67	4.94	0.96	-3.06	-6.73	-9.67	-11.57	-12.32	-12.05	-11.05	-9.65	-8.24	-7.16	-6.76	-7.3	-8.86	-11.2	-13.66	-15.4	-15.66	-14.14	-11.19	-7.74	-4.89	-3.53	-3.95	-5.89	-8.72	-11.71	-14.33	-16.28	-17.44	-17.71	-16.98	-15.16	-12.29	-8.6	-4.49	-0.4	3.34	6.61	9.42	11.84	13.78	15.09	15.68	15.62	15.16	14.58	13.89	12.79	10.74	7.31	2.47	-3.28	-9.18	-14.49	-18.73	-21.79	-23.79	-24.91	-25.25	-24.96	-24.18	-23.16	-22.19	-21.47	-21.06	-20.8	-20.44	-19.7	-18.41	-16.6	-14.53	-12.62	-11.31	-10.95	-11.68	-13.36	-15.61	-17.93	-19.79	-20.81	-20.78	-19.76	-18.02	-15.93	-13.86	-12.04	-10.55	-9.36	-8.39	-7.54	-6.8	-6.16	-5.69	-5.46	-5.53	-5.95	-6.61	-7.4	-8.12
-0.4	3.34	6.61	9.42	11.84	13.78	15.09	15.68	15.62	15.16	14.58	13.89	12.79	10.74	7.31	2.47	-3.28	-9.18	-14.49	-18.73	-21.79	-23.79	-24.91	-25.25	-24.96	-24.18	-23.16	-22.19	-21.47	-21.06	-20.8	-20.44	-19.7	-18.41	-16.6	-14.53	-12.62	-11.31	-10.95	-11.68	-13.36	-15.61	-17.93	-19.79	-20.81	-20.78	-19.76	-18.02	-15.93	-13.86	-12.04	-10.55	-9.36	-8.39	-7.54	-6.8	-6.16	-5.69	-5.46	-5.53	-5.95	-6.61	-7.4	-8.12	-8.63	-8.89	-8.93	-8.78	-8.48	-8.02	-7.42	-6.76	-6.17	-5.81	-5.78	-6.11	-6.76	-7.71	-8.97	-10.54	-12.35	-14.26	-16.02	-17.38	-18.15	-18.33	-17.97	-17.17	-15.93	-14.21	-11.93	-9.13	-6	-2.85	0.03	2.42	4.33	5.85	7.08	8	8.44	8.22	7.31	5.95	4.61	3.78	3.69	4.15	4.53	4.12	2.46	-0.39	-3.84	-6.99	-9.28	-10.58	-11.03	-11.34	-12.56	-15.32	-19.51	-24.29	-28.42	-31.03	-31.89	-31.2	-29.78	-28.73
-8.63	-8.89	-8.93	-8.78	-8.48	-8.02	-7.42	-6.76	-6.17	-5.81	-5.78	-6.11	-6.76	-7.71	-8.97	-10.54	-12.35	-14.26	-16.02	-17.38	-18.15	-18.33	-17.97	-17.17	-15.93	-14.21	-11.93	-9.13	-6	-2.85	0.03	2.42	4.33	5.85	7.08	8	8.44	8.22	7.31	5.95	4.61	3.78	3.69	4.15	4.53	4.12	2.46	-0.39	-3.84	-6.99	-9.28	-10.58	-11.03	-11.34	-12.56	-15.32	-19.51	-24.29	-28.42	-31.03	-31.89	-31.2	-29.78	-28.73	-28.72	-29.94	-32.3	-35.71	-40.05	-44.24	-45.19	-39.83	-26.86	-7.52	14.18	32.95	44.66	47.05	41.76	34.88	31.02	30.8	32.27	32.48	29.33	22.58	10.57	-7.77	-29.36	-53.69	-82.72	-116.45	-152.47	-186.46	-213.43	-233.18	-245.94	-245.44	-230.03	-204.03	-172.16	-138.73	-107.05	-79.15	-61.49	-58.3	-62.36	-69.34	-79.72	-92.56	-106.02	-118.28	-95.03	-20.38	51.44	98.76	132.52	155.61	170.24	177.93	179.5	175.29	160.26	131.36	97.28	63.78	31.33	0.85
-28.72	-29.94	-32.3	-35.71	-40.05	-44.24	-45.19	-39.83	-26.86	-7.52	14.18	32.95	44.66	47.05	41.76	34.88	31.02	30.8	32.27	32.48	29.33	22.58	10.57	-7.77	-29.36	-53.69	-82.72	-116.45	-152.47	-186.46	-213.43	-233.18	-245.94	-245.44	-230.03	-204.03	-172.16	-138.73	-107.05	-79.15	-61.49	-58.3	-62.36	-69.34	-79.72	-92.56	-106.02	-118.28	-95.03	-20.38	51.44	98.76	132.52	155.61	170.24	177.93	179.5	175.29	160.26	131.36	97.28	63.78	31.33	0.85	-26.54	-49.74	-67.56	-82.88	-97.26	-103.9	-99.38	-85.81	-66.3	-44.67	-24.92	-10.29	-5.13	-11.11	-22.62	-34.24	-42.61	-44.22	-36.26	-17.55	10.78	43.72	74.74	99.54	114.53	118.03	112.07	101.66	92.71	89.97	95.39	108.59	128.65	154.03	183.2	215.21	248.91	281.94	310.28	328.75	332.63	319.55	290.48	249.39	201.33	150.02	96.64	40.46	-18.94	-79.49	-135.76	-180.66	-208.35	-216.81	-208.5	-188.57	-162.34	-133.27	-103.01	-72.38	-43.02	-17.69	0.73	10.76
-26.54	-49.74	-67.56	-82.88	-97.26	-103.9	-99.38	-85.81	-66.3	-44.67	-24.92	-10.29	-5.13	-11.11	-22.62	-34.24	-42.61	-44.22	-36.26	-17.55	10.78	43.72	74.74	99.54	114.53	118.03	112.07	101.66	92.71	89.97	95.39	108.59	128.65	154.03	183.2	215.21	248.91	281.94	310.28	328.75	332.63	319.55	290.48	249.39	201.33	150.02	96.64	40.46	-18.94	-79.49	-135.76	-180.66	-208.35	-216.81	-208.5	-188.57	-162.34	-133.27	-103.01	-72.38	-43.02	-17.69	0.73	10.76	13.65	13.07	13.57	18.54	28.73	41.99	54.53	62.68	64.49	60.43	52.81	44.6	38.02	34.01	32.25	31.97	32.51	33.65	35.47	38.08	41.27	44.44	46.85	47.95	47.69	46.33	44.3	42.15	40.45	39.75	40.09	41.18	42.71	44.64	47.13	50.49	55.05	61.07	68.56	76.42	83.15	87.58	89.15	87.24	80.68	68.15	48.92	23.55	-7.73	-44.19	-83.41	-121.12	-152.63	-173.93	-182.01	-174.84	-151.41	-114.79	-70.22	-21.92	28.12	78.26	125.4	164.8
13.65	13.07	13.57	18.54	28.73	41.99	54.53	62.68	64.49	60.43	52.81	44.6	38.02	34.01	32.25	31.97	32.51	33.65	35.47	38.08	41.27	44.44	46.85	47.95	47.69	46.33	44.3	42.15	40.45	39.75	40.09	41.18	42.71	44.64	47.13	50.49	55.05	61.07	68.56	76.42	83.15	87.58	89.15	87.24	80.68	68.15	48.92	23.55	-7.73	-44.19	-83.41	-121.12	-152.63	-173.93	-182.01	-174.84	-151.41	-114.79	-70.22	-21.92	28.12	78.26	125.4	164.8	191.52	202.27	193.1	161.44	109.21	42.43	-32.56	-112.05	-195.05	-281.67	-345.49	-362.59	-328.46	-260.82	-183.63	-112.32	-51.5	0.79	49.12	89.03	123.39	151.4	172.28	187.69	200.53	212.97	225.8	238.4	254.59	271.21	281.26	278.91	261.85	230.55	186.8	132.97	71.85	6.26	-63.33	-138.25	-218.92	-304.1	-391.94	-481.01	-569.7	-654.87	-730.69	-790.1	-826.29	-834.24	-812.83	-766.03	-701.88	-629.52	-556.2	-485.72	-419.44	-357.71	-300.99	-250.13	-205.92	-168.48	-136.81	-109.2
191.52	202.27	193.1	161.44	109.21	42.43	-32.56	-112.05	-195.05	-281.67	-345.49	-362.59	-328.46	-260.82	-183.63	-112.32	-51.5	0.79	49.12	89.03	123.39	151.4	172.28	187.69	200.53	212.97	225.8	238.4	254.59	271.21	281.26	278.91	261.85	230.55	186.8	132.97	71.85	6.26	-63.33	-138.25	-218.92	-304.1	-391.94	-481.01	-569.7	-654.87	-730.69	-790.1	-826.29	-834.24	-812.83	-766.03	-701.88	-629.52	-556.2	-485.72	-419.44	-357.71	-300.99	-250.13	-205.92	-168.48	-136.81	-109.2	-84.03	-60.67	-39.5	-21.55	-7.61	2.4	9.65	16.03	23.47	33.27	45.52	59.28	72.95	84.93	94.15	100.34	103.9	105.6	106.15	105.91	104.87	102.79	99.51	95.12	90.07	85.05	80.7	77.48	75.47	74.39	73.68	72.72	70.99	68.11	63.91	58.38	51.59	43.61	34.55	24.47	13.51	1.87	-10.15	-22.13	-33.5	-43.67	-52.05	-58.25	-62.09	-63.66	-63.16	-60.78	-56.53	-50.16	-41.23	-29.22	-13.7	5.39	27.75	52.67	79.34	107.29	136.84	169.18
-84.03	-60.67	-39.5	-21.55	-7.61	2.4	9.65	16.03	23.47	33.27	45.52	59.28	72.95	84.93	94.15	100.34	103.9	105.6	106.15	105.91	104.87	102.79	99.51	95.12	90.07	85.05	80.7	77.48	75.47	74.39	73.68	72.72	70.99	68.11	63.91	58.38	51.59	43.61	34.55	24.47	13.51	1.87	-10.15	-22.13	-33.5	-43.67	-52.05	-58.25	-62.09	-63.66	-63.16	-60.78	-56.53	-50.16	-41.23	-29.22	-13.7	5.39	27.75	52.67	79.34	107.29	136.84	169.18	206.02	248.64	296.81	348.02	397.49	438.9	465.55	471.63	453.42	410.45	346.14	267.95	186.26	112.14	54.48	17.54	0.13	-3.22	0.46	5.23	7.99	8.39	7.58	7.03	7.92	11.23	17.84	27.89	40.01	50.85	55.91	51.54	37.07	15.68	-6.63	-23.48	-30.57	-26.92	-14.36	3.82	24.11	43.19	57.71	64.41	61.02	47.75	28.2	8.69	-4.02	-5.56	4.31	21.64	40.47	55.45	64.1	67.46	68.99	72.83	82.19	98.58	121.65	149.22	177.22	200.1
206.02	248.64	296.81	348.02	397.49	438.9	465.55	471.63	453.42	410.45	346.14	267.95	186.26	112.14	54.48	17.54	0.13	-3.22	0.46	5.23	7.99	8.39	7.58	7.03	7.92	11.23	17.84	27.89	40.01	50.85	55.91	51.54	37.07	15.68	-6.63	-23.48	-30.57	-26.92	-14.36	3.82	24.11	43.19	57.71	64.41	61.02	47.75	28.2	8.69	-4.02	-5.56	4.31	21.64	40.47	55.45	64.1	67.46	68.99	72.83	82.19	98.58	121.65	149.22	177.22	200.1	212.07	209.31	192.26	166.47	140.89	124.21	120.76	128.38	139.48	144.93	138.5	119.6	93.04	66.18	45.41	33.72	30.29	31.62	33.41	32.13	26.04	15.32	1.43	-13.91	-29.84	-46.72	-65.57	-86.78	-108.95	-128.8	-142.39	-147.03	-142.64	-131.89	-118.75	-106.7	-97.6	-91.59	-87.93	-85.79	-84.46	-82.96	-79.8	-73.3	-62.46	-47.62	-30.56	-13.56	1.65	14.51	25.33	34.5	41.83	46.68	48.67	48.49	48.04	49.57	54.39	61.96	69.86	74.96	75.06	70.13
212.07	209.31	192.26	166.47	140.89	124.21	120.76	128.38	139.48	144.93	138.5	119.6	93.04	66.18	45.41	33.72	30.29	31.62	33.41	32.13	26.04	15.32	1.43	-13.91	-29.84	-46.72	-65.57	-86.78	-108.95	-128.8	-142.39	-147.03	-142.64	-131.89	-118.75	-106.7	-97.6	-91.59	-87.93	-85.79	-84.46	-82.96	-79.8	-73.3	-62.46	-47.62	-30.56	-13.56	1.65	14.51	25.33	34.5	41.83	46.68	48.67	48.49	48.04	49.57	54.39	61.96	69.86	74.96	75.06	70.13	62.35	54.95	50.52	49.81	51.51	53.26	53.02	50.2	45.78	41.72	39.77	40.66	43.73	47.33	49.48	48.78	44.89	38.65	31.73	25.8	21.76	19.42	17.73	15.61	12.7	9.74	8.13	9.16	13.06	18.8	24.47	28.12	28.48	25.27	19.19	11.48	3.68	-2.75	-6.82	-8.32	-8.03	-7.41	-7.97	-10.47	-14.59	-19.08	-22.58	-24.4	-24.93	-25.43	-27.12	-30.5	-35.11	-39.97	-44.3	-48.03	-51.63	-55.57	-59.57	-62.41	-62.5	-58.74	-51.38	-42.12
62.35	54.95	50.52	49.81	51.51	53.26	53.02	50.2	45.78	41.72	39.77	40.66	43.73	47.33	49.48	48.78	44.89	38.65	31.73	25.8	21.76	19.42	17.73	15.61	12.7	9.74	8.13	9.16	13.06	18.8	24.47	28.12	28.48	25.27	19.19	11.48	3.68	-2.75	-6.82	-8.32	-8.03	-7.41	-7.97	-10.47	-14.59	-19.08	-22.58	-24.4	-24.93	-25.43	-27.12	-30.5	-35.11	-39.97	-44.3	-48.03	-51.63	-55.57	-59.57	-62.41	-62.5	-58.74	-51.38	-42.12	-33.46	-27.49	-24.81	-24.17	-23.03	-18.81	-10.28	1.73	14.55	24.9	30.34	30.36	26.55	21.69	18.38	17.9	19.77	22.26	23.47	22.24	18.68	13.84	9.12	5.6	3.71	3.18	3.37	3.48	2.81	0.99	-1.99	-5.64	-9.08	-11.3	-11.53	-9.63	-6.21	-2.32	1.04	3.43	5.16	6.93	9.41	12.64	16.01	18.63	19.83	19.66	18.98	19.03	20.75	24.26	28.61	32.2	33.44	31.47	26.58	20.09	13.77	9.19	7.16	7.66	9.92	12.82
-33.46	-27.49	-24.81	-24.17	-23.03	-18.81	-10.28	1.73	14.55	24.9	30.34	30.36	26.55	21.69	18.38	17.9	19.77	22.26	23.47	22.24	18.68	13.84	9.12	5.6	3.71	3.18	3.37	3.48	2.81	0.99	-1.99	-5.64	-9.08	-11.3	-11.53	-9.63	-6.21	-2.32	1.04	3.43	5.16	6.93	9.41	12.64	16.01	18.63	19.83	19.66	18.98	19.03	20.75	24.26	28.61	32.2	33.44	31.47	26.58	20.09	13.77	9.19	7.16	7.66	9.92	12.82	15.05	15.34	12.64	6.43	-2.84	-13.48	-22.78	-27.74	-26.17	-17.78	-4.41	10.44	22.91	30.22	31.7	28.9	24.8	22.44	23.63	28.19	34.18	38.79	39.67	36.06	29.11	21.43	15.9	14.33	16.61	20.67	23.37	21.99	15.49	5.06	-6.36	-15.48	-20.2	-20.46	-18.06	-15.51	-14.61	-15.59	-17.4	-18.65	-18.79	-18.5	-19.14	-21.56	-25.15	-27.81	-27.09	-21.59	-12.04	-1.12	7.81	12.35	12.28	9.41	6.45	5.46	6.77	9.06	10.47	9.86
15.05	15.34	12.64	6.43	-2.84	-13.48	-22.78	-27.74	-26.17	-17.78	-4.41	10.44	22.91	30.22	31.7	28.9	24.8	22.44	23.63	28.19	34.18	38.79	39.67	36.06	29.11	21.43	15.9	14.33	16.61	20.67	23.37	21.99	15.49	5.06	-6.36	-15.48	-20.2	-20.46	-18.06	-15.51	-14.61	-15.59	-17.4	-18.65	-18.79	-18.5	-19.14	-21.56	-25.15	-27.81	-27.09	-21.59	-12.04	-1.12	7.81	12.35	12.28	9.41	6.45	5.46	6.77	9.06	10.47	9.86	7.71	5.73	5.82	8.67	13.22	17.13	18.12	15.28	9.63	3.58	-0.39	-1.12	0.74	3.05	3.39	0.24	-6.41	-15.2	-24.23	-31.96	-37.84	-42.35	-46.43	-50.86	-55.69	-60.21	-63.32	-64.14	-62.56	-59.36	-55.81	-53.1	-51.64	-50.92	-49.8	-47.3	-43.33	-39.04	-36.49	-37.76	-43.93	-54.38	-66.97	-78.87	-87.7	-92.61	-94.51	-95.65	-98.74	-105.98	-118.31	-135	-153.63	-170.52	-181.46	-182.94	-173.15	-152.84	-125.06	-94.07	-63.84	-36.72	-13.05	8.29
7.71	5.73	5.82	8.67	13.22	17.13	18.12	15.28	9.63	3.58	-0.39	-1.12	0.74	3.05	3.39	0.24	-6.41	-15.2	-24.23	-31.96	-37.84	-42.35	-46.43	-50.86	-55.69	-60.21	-63.32	-64.14	-62.56	-59.36	-55.81	-53.1	-51.64	-50.92	-49.8	-47.3	-43.33	-39.04	-36.49	-37.76	-43.93	-54.38	-66.97	-78.87	-87.7	-92.61	-94.51	-95.65	-98.74	-105.98	-118.31	-135	-153.63	-170.52	-181.46	-182.94	-173.15	-152.84	-125.06	-94.07	-63.84	-36.72	-13.05	8.29	28.93	50.15	72.72	97.34	125.28	158.32	197.92	243.81	292.93	339.56	376.8	399.1	404.27	394.21	373.8	348.68	322.93	297.95	272.84	245.92	216.5	185.41	154.61	126.1	101.05	79.36	60.07	42.06	24.64	8.31	-5.81	-16.54	-23.4	-26.89	-28.36	-29.45	-31.42	-34.68	-38.07	-39.91	-38.87	-34.66	-28.19	-21.12	-15.07	-11.07	-9.29	-7.51	-3.49	3.76	13.43	23.31	31.12	35.58	36.77	35.63	36.81	43.95	58.03	76.8	96.25	112.84	124.9	132.63
28.93	50.15	72.72	97.34	125.28	158.32	197.92	243.81	292.93	339.56	376.8	399.1	404.27	394.21	373.8	348.68	322.93	297.95	272.84	245.92	216.5	185.41	154.61	126.1	101.05	79.36	60.07	42.06	24.64	8.31	-5.81	-16.54	-23.4	-26.89	-28.36	-29.45	-31.42	-34.68	-38.07	-39.91	-38.87	-34.66	-28.19	-21.12	-15.07	-11.07	-9.29	-7.51	-3.49	3.76	13.43	23.31	31.12	35.58	36.77	35.63	36.81	43.95	58.03	76.8	96.25	112.84	124.9	132.63	136.62	142.93	156.13	177.61	205.18	234.92	263.54	289.21	310.96	327.26	344.4	368.6	403.56	448.49	498.67	547.75	589.8	620.64	599.37	504.4	338.29	130.47	-78.81	-259.31	-398.99	-499.61	-563.84	-606.29	-630.48	-636.77	-626.32	-603.53	-575.17	-547.61	-524.12	-504.03	-487.93	-470.29	-446.77	-415.76	-379.19	-341.14	-305.59	-276.96	-256.67	-247.52	-248.11	-256.95	-273.34	-297.6	-330.39	-367.45	-402.39	-420.6	-412.05	-373.94	-314.57	-248.73	-189.76	-144.34	-112.04	-88.9	-70.68	-56.79
136.62	142.93	156.13	177.61	205.18	234.92	263.54	289.21	310.96	327.26	344.4	368.6	403.56	448.49	498.67	547.75	589.8	620.64	599.37	504.4	338.29	130.47	-78.81	-259.31	-398.99	-499.61	-563.84	-606.29	-630.48	-636.77	-626.32	-603.53	-575.17	-547.61	-524.12	-504.03	-487.93	-470.29	-446.77	-415.76	-379.19	-341.14	-305.59	-276.96	-256.67	-247.52	-248.11	-256.95	-273.34	-297.6	-330.39	-367.45	-402.39	-420.6	-412.05	-373.94	-314.57	-248.73	-189.76	-144.34	-112.04	-88.9	-70.68	-56.79	-47.05	-40.62	-35.2	-27.58	-15.25	2.67	24.93	49.67	74.52	95.93	113.56	129.61	147.67	171.04	201.15	236.46	272.73	303.26	321.35	323.15	308.82	282.43	250.32	218.7	191.46	169.58	151.42	134.55	117.65	100.9	85.5	72.57	62.32	53.83	45.71	36.76	26.68	16.39	7.38	0.99	-2.07	-1.92	0.72	4.83	9.48	13.91	17.71	20.63	22.59	23.63	24.04	24.42	25.67	28.49	32.81	37.3	39.19	34.79	20.71	-4.75	-40.69	-83.56	-128.1	-168.73
-47.05	-40.62	-35.2	-27.58	-15.25	2.67	24.93	49.67	74.52	95.93	113.56	129.61	147.67	171.04	201.15	236.46	272.73	303.26	321.35	323.15	308.82	282.43	250.32	218.7	191.46	169.58	151.42	134.55	117.65	100.9	85.5	72.57	62.32	53.83	45.71	36.76	26.68	16.39	7.38	0.99	-2.07	-1.92	0.72	4.83	9.48	13.91	17.71	20.63	22.59	23.63	24.04	24.42	25.67	28.49	32.81	37.3	39.19	34.79	20.71	-4.75	-40.69	-83.56	-128.1	-168.73	-200.93	-221.95	-230.88	-228.33	-215.95	-196.15	-171.79	-145.96	-121.66	-101.36	-86.68	-78.12	-74.95	-75.37	-76.97	-77.33	-74.74	-68.7	-59.89	-49.74	-39.53	-29.81	-20.44	-11.02	-1.68	6.69	12.78	15.7	15.76	14.51	14.02	15.75	19.75	24.6	28.2	28.81	25.92	20.25	13.41	7.09	2.37	-0.46	-1.84	-2.57	-3.41	-4.71	-6.31	-7.71	-8.44	-8.43	-8.26	-8.93	-11.34	-15.7	-21.19	-26.15	-28.85	-28.37	-25.19	-21.03	-18.08	-17.85	-20.34	-23.92
-200.93	-221.95	-230.88	-228.33	-215.95	-196.15	-171.79	-145.96	-121.66	-101.36	-86.68	-78.12	-74.95	-75.37	-76.97	-77.33	-74.74	-68.7	-59.89	-49.74	-39.53	-29.81	-20.44	-11.02	-1.68	6.69	12.78	15.7	15.76	14.51	14.02	15.75	19.75	24.6	28.2	28.81	25.92	20.25	13.41	7.09	2.37	-0.46	-1.84	-2.57	-3.41	-4.71	-6.31	-7.71	-8.44	-8.43	-8.26	-8.93	-11.34	-15.7	-21.19	-26.15	-28.85	-28.37	-25.19	-21.03	-18.08	-17.85	-20.34	-23.92	-26.11	-24.66	-18.62	-8.64	3.34	14.94	24.15	29.73	31.23	28.79	22.92	14.52	4.89	-4.43	-12.03	-16.95	-18.98	-18.46	-15.94	-11.88	-6.5	-0.07	6.79	13.03	17.38	18.96	17.73	14.59	10.91	7.81	5.55	3.47	0.43	-4.31	-10.46	-16.47	-20.22	-19.85	-14.86	-6.48	2.74	9.82	12.55	10.27	4.01	-4.16	-12	-17.9	-21.27	-22.38	-21.9	-20.45	-18.38	-15.82	-12.95	-10.07	-7.6	-5.85	-4.81	-4.12	-3.24	-1.67	0.74	3.76
-26.11	-24.66	-18.62	-8.64	3.34	14.94	24.15	29.73	31.23	28.79	22.92	14.52	4.89	-4.43	-12.03	-16.95	-18.98	-18.46	-15.94	-11.88	-6.5	-0.07	6.79	13.03	17.38	18.96	17.73	14.59	10.91	7.81	5.55	3.47	0.43	-4.31	-10.46	-16.47	-20.22	-19.85	-14.86	-6.48	2.74	9.82	12.55	10.27	4.01	-4.16	-12	-17.9	-21.27	-22.38	-21.9	-20.45	-18.38	-15.82	-12.95	-10.07	-7.6	-5.85	-4.81	-4.12	-3.24	-1.67	0.74	3.76	6.84	9.4	10.98	11.45	10.99	10.02	9.05	8.57	8.87	9.95	11.53	13.13	14.22	14.44	13.7	12.18	10.26	8.33	6.61	5.18	3.96	2.86	1.88	1.16	0.97	1.57	3.1	5.52	8.58	11.88	14.97	17.49	19.24	20.19	20.47	20.26	19.76	19.1	18.37	17.6	16.86	16.17	15.58	15.17	14.98	15.04	15.32	15.68	15.92	15.84	15.3	14.27	12.88	11.33	9.79	8.35	7.03	5.74	4.39	2.91	1.25	-0.55	-2.35	-3.91
6.84	9.4	10.98	11.45	10.99	10.02	9.05	8.57	8.87	9.95	11.53	13.13	14.22	14.44	13.7	12.18	10.26	8.33	6.61	5.18	3.96	2.86	1.88	1.16	0.97	1.57	3.1	5.52	8.58	11.88	14.97	17.49	19.24	20.19	20.47	20.26	19.76	19.1	18.37	17.6	16.86	16.17	15.58	15.17	14.98	15.04	15.32	15.68	15.92	15.84	15.3	14.27	12.88	11.33	9.79	8.35	7.03	5.74	4.39	2.91	1.25	-0.55	-2.35	-3.91	-4.92	-5.12	-4.42	-2.92	-0.88	1.46	3.92	6.39	8.81	11	12.74	13.76	13.94	13.4	12.43	11.42	10.69	10.32	10.2	10.14	10.01	9.85	9.85	10.19	10.92	11.86	12.61	12.73	11.9	10.11	7.66	5.01	2.61	0.73	-0.6	-1.52	-2.25	-3.01	-3.92	-5.05	-6.38	-7.73	-8.83	-9.27	-8.74	-7.1	-4.48	-1.29	1.96	4.86	7.23	9.2	11.01	12.92	14.95	16.93	18.61	19.78	20.46	20.92	21.54	22.68	24.43	26.64
-4.92	-5.12	-4.42	-2.92	-0.88	1.46	3.92	6.39	8.81	11	12.74	13.76	13.94	13.4	12.43	11.42	10.69	10.32	10.2	10.14	10.01	9.85	9.85	10.19	10.92	11.86	12.61	12.73	11.9	10.11	7.66	5.01	2.61	0.73	-0.6	-1.52	-2.25	-3.01	-3.92	-5.05	-6.38	-7.73	-8.83	-9.27	-8.74	-7.1	-4.48	-1.29	1.96	4.86	7.23	9.2	11.01	12.92	14.95	16.93	18.61	19.78	20.46	20.92	21.54	22.68	24.43	26.64	28.93	30.88	32.28	33.14	33.74	34.42	35.46	36.99	38.96	41.26	43.73	46.07	47.78	48.26	47.03	44.13	40.38	37.18	35.95	37.37	40.86	44.78	47.13	46.52	42.8	36.93	30.27	23.7	17.17	9.82	0.7	-10.58	-23.64	-37.54	-51.27	-64.04	-75.3	-84.53	-91.16	-94.61	-94.64	-91.53	-86.15	-79.66	-73.22	-67.63	-63.31	-60.23	-58.11	-56.48	-54.85	-52.94	-50.65	-48.06	-45.14	-41.61	-36.93	-30.69	-23.07	-15	-7.87	-2.84	-0.2	0.86
28.93	30.88	32.28	33.14	33.74	34.42	35.46	36.99	38.96	41.26	43.73	46.07	47.78	48.26	47.03	44.13	40.38	37.18	35.95	37.37	40.86	44.78	47.13	46.52	42.8	36.93	30.27	23.7	17.17	9.82	0.7	-10.58	-23.64	-37.54	-51.27	-64.04	-75.3	-84.53	-91.16	-94.61	-94.64	-91.53	-86.15	-79.66	-73.22	-67.63	-63.31	-60.23	-58.11	-56.48	-54.85	-52.94	-50.65	-48.06	-45.14	-41.61	-36.93	-30.69	-23.07	-15	-7.87	-2.84	-0.2	0.86	1.86	4.3	8.95	15.42	22.38	28.01	30.65	29.27	23.79	15.01	4.33	-6.66	-16.53	-24.22	-29.26	-31.65	-31.9	-30.91	-29.72	-29.24	-29.87	-31.32	-32.79	-33.6	-33.67	-33.84	-35.33	-38.96	-44.25	-49.36	-51.78	-49.65	-42.82	-33.06	-23.26	-16.12	-12.88	-13.07	-14.98	-16.83	-17.64	-17.48	-17.1	-17.18	-17.8	-18.39	-18.1	-16.24	-12.66	-7.7	-1.97	4.03	10.01	15.95	21.78	27.28	31.97	35.21	36.45	35.51	32.77	29.08	25.65	23.55
1.86	4.3	8.95	15.42	22.38	28.01	30.65	29.27	23.79	15.01	4.33	-6.66	-16.53	-24.22	-29.26	-31.65	-31.9	-30.91	-29.72	-29.24	-29.87	-31.32	-32.79	-33.6	-33.67	-33.84	-35.33	-38.96	-44.25	-49.36	-51.78	-49.65	-42.82	-33.06	-23.26	-16.12	-12.88	-13.07	-14.98	-16.83	-17.64	-17.48	-17.1	-17.18	-17.8	-18.39	-18.1	-16.24	-12.66	-7.7	-1.97	4.03	10.01	15.95	21.78	27.28	31.97	35.21	36.45	35.51	32.77	29.08	25.65	23.55	23.49	25.5	28.96	32.77	35.77	37.14	36.64	34.76	32.34	30.22	28.8	27.94	27.07	25.57	23.05	19.58	15.58	11.64	8.27	5.8	4.27	3.6	3.64	4.29	5.47	7.14	9.24	11.59	13.94	16	17.52	18.36	18.49	17.97	16.87	15.27	13.31	11.15	8.98	6.96	5.22	3.78	2.65	1.82	1.34	1.23	1.5	2.03	2.64	3.06	3.04	2.41	1.14	-0.65	-2.72	-4.84	-6.85	-8.71	-10.44	-12.02	-13.32	-14	-13.75	-12.37
23.49	25.5	28.96	32.77	35.77	37.14	36.64	34.76	32.34	30.22	28.8	27.94	27.07	25.57	23.05	19.58	15.58	11.64	8.27	5.8	4.27	3.6	3.64	4.29	5.47	7.14	9.24	11.59	13.94	16	17.52	18.36	18.49	17.97	16.87	15.27	13.31	11.15	8.98	6.96	5.22	3.78	2.65	1.82	1.34	1.23	1.5	2.03	2.64	3.06	3.04	2.41	1.14	-0.65	-2.72	-4.84	-6.85	-8.71	-10.44	-12.02	-13.32	-14	-13.75	-12.37	-9.99	-7.01	-3.98	-1.32	0.85	2.65	4.29	5.82	7.07	7.71	7.5	6.45	4.87	3.27	2.09	1.57	1.67	2.21	2.96	3.83	4.73	5.62	6.34	6.67	6.39	5.44	3.93	2.17	0.49	-0.91	-2.04	-3.05	-4.13	-5.3	-6.41	-7.22	-7.51	-7.24	-6.51	-5.47	-4.19	-2.67	-0.92	1	2.92	4.69	6.17	7.4	8.51	9.59	10.62	11.43	11.79	11.54	10.67	9.35	7.88	6.55	5.55	4.93	4.61	4.41	4.19	3.83
-9.99	-7.01	-3.98	-1.32	0.85	2.65	4.29	5.82	7.07	7.71	7.5	6.45	4.87	3.27	2.09	1.57	1.67	2.21	2.96	3.83	4.73	5.62	6.34	6.67	6.39	5.44	3.93	2.17	0.49	-0.91	-2.04	-3.05	-4.13	-5.3	-6.41	-7.22	-7.51	-7.24	-6.51	-5.47	-4.19	-2.67	-0.92	1	2.92	4.69	6.17	7.4	8.51	9.59	10.62	11.43	11.79	11.54	10.67	9.35	7.88	6.55	5.55	4.93	4.61	4.41	4.19	3.83	3.36	2.87	2.49	2.23	2.05	1.82	1.45	0.88	0.09	-0.97	-2.39	-4.18	-6.26	-8.34	-10.02	-10.89	-10.76	-9.73	-8.09	-6.2	-4.28	-2.37	-0.39	1.74	3.93	5.96	7.54	8.43	8.62	8.26	7.66	7.15	6.91	6.97	7.16	7.23	6.94	6.25	5.25	4.18	3.23	2.56	2.15	1.96	1.92	1.98	2.1	2.15	2.02	1.51	0.47	-1.12	-3.16	-5.45	-7.69	-9.59	-10.89	-11.39	-10.97	-9.67	-7.62	-5.05	-2.26	0.49
3.36	2.87	2.49	2.23	2.05	1.82	1.45	0.88	0.09	-0.97	-2.39	-4.18	-6.26	-8.34	-10.02	-10.89	-10.76	-9.73	-8.09	-6.2	-4.28	-2.37	-0.39	1.74	3.93	5.96	7.54	8.43	8.62	8.26	7.66	7.15	6.91	6.97	7.16	7.23	6.94	6.25	5.25	4.18	3.23	2.56	2.15	1.96	1.92	1.98	2.1	2.15	2.02	1.51	0.47	-1.12	-3.16	-5.45	-7.69	-9.59	-10.89	-11.39	-10.97	-9.67	-7.62	-5.05	-2.26	0.49	2.98	5.08	6.66	7.68	8.15	8.16	7.89	7.59	7.48	7.71	8.23	8.86	9.36	9.57	9.5	9.26	9.04	8.96	9.03	9.17	9.24	9.12	8.75	8.16	7.42	6.63	5.87	5.17	4.53	3.92	3.28	2.47	1.35	-0.22	-2.33	-4.9	-7.66	-10.19	-12.04	-12.85	-12.48	-11.06	-8.89	-6.33	-3.67	-1.08	1.34	3.59	5.59	7.23	8.36	8.9	8.9	8.56	8.16	7.93	7.91	7.94	7.79	7.27	6.44	5.6	5.11	5.24
2.98	5.08	6.66	7.68	8.15	8.16	7.89	7.59	7.48	7.71	8.23	8.86	9.36	9.57	9.5	9.26	9.04	8.96	9.03	9.17	9.24	9.12	8.75	8.16	7.42	6.63	5.87	5.17	4.53	3.92	3.28	2.47	1.35	-0.22	-2.33	-4.9	-7.66	-10.19	-12.04	-12.85	-12.48	-11.06	-8.89	-6.33	-3.67	-1.08	1.34	3.59	5.59	7.23	8.36	8.9	8.9	8.56	8.16	7.93	7.91	7.94	7.79	7.27	6.44	5.6	5.11	5.24	5.98	7.04	7.97	8.38	8.09	7.14	5.71	4	2.15	0.26	-1.64	-3.48	-5.23	-6.8	-8.17	-9.27	-10.07	-10.47	-10.4	-9.81	-8.72	-7.19	-5.32	-3.2	-0.94	1.32	3.41	5.13	6.33	6.94	7	6.65	6.07	5.44	4.89	4.48	4.25	4.22	4.41	4.76	5.19	5.54	5.69	5.59	5.35	5.12	5.08	5.25	5.47	5.46	4.96	3.88	2.37	0.71	-0.81	-2.03	-2.98	-3.78	-4.6	-5.52	-6.55	-7.55	-8.31	-8.54
5.98	7.04	7.97	8.38	8.09	7.14	5.71	4	2.15	0.26	-1.64	-3.48	-5.23	-6.8	-8.17	-9.27	-10.07	-10.47	-10.4	-9.81	-8.72	-7.19	-5.32	-3.2	-0.94	1.32	3.41	5.13	6.33	6.94	7	6.65	6.07	5.44	4.89	4.48	4.25	4.22	4.41	4.76	5.19	5.54	5.69	5.59	5.35	5.12	5.08	5.25	5.47	5.46	4.96	3.88	2.37	0.71	-0.81	-2.03	-2.98	-3.78	-4.6	-5.52	-6.55	-7.55	-8.31	-8.54	-7.98	-6.51	-4.23	-1.51	1.17	3.41	5.01	6.04	6.72	7.2	7.56	7.78	7.85	7.85	7.89	8.01	8.12	8.03	7.57	6.8	5.89	5.1	4.58	4.28	4.02	3.62	3.05	2.4	1.78	1.23	0.62	-0.19	-1.3	-2.66	-4.11	-5.47	-6.65	-7.65	-8.47	-9.09	-9.38	-9.21	-8.49	-7.28	-5.74	-4.1	-2.55	-1.19	-0.08	0.77	1.39	1.81	2.07	2.23	2.32	2.39	2.42	2.43	2.4	2.33	2.18	1.93	1.63	1.38
-7.98	-6.51	-4.23	-1.51	1.17	3.41	5.01	6.04	6.72	7.2	7.56	7.78	7.85	7.85	7.89	8.01	8.12	8.03	7.57	6.8	5.89	5.1	4.58	4.28	4.02	3.62	3.05	2.4	1.78	1.23	0.62	-0.19	-1.3	-2.66	-4.11	-5.47	-6.65	-7.65	-8.47	-9.09	-9.38	-9.21	-8.49	-7.28	-5.74	-4.1	-2.55	-1.19	-0.08	0.77	1.39	1.81	2.07	2.23	2.32	2.39	2.42	2.43	2.4	2.33	2.18	1.93	1.63	1.38	1.39	1.79	2.62	3.66	4.56	4.94	4.57	3.5	2.01	0.53	-0.64	-1.41	-1.92	-2.44	-3.19	-4.23	-5.4	-6.47	-7.26	-7.7	-7.82	-7.71	-7.35	-6.71	-5.77	-4.59	-3.36	-2.25	-1.37	-0.68	-0.02	0.71	1.46	2	2.08	1.59	0.71	-0.25	-0.89	-1.04	-0.75	-0.27	0.14	0.33	0.26	-0.02	-0.41	-0.86	-1.33	-1.76	-2.08	-2.3	-2.52	-2.88	-3.49	-4.36	-5.4	-6.46	-7.44	-8.29	-8.98	-9.45	-9.62	-9.38
1.39	1.79	2.62	3.66	4.56	4.94	4.57	3.5	2.01	0.53	-0.64	-1.41	-1.92	-2.44	-3.19	-4.23	-5.4	-6.47	-7.26	-7.7	-7.82	-7.71	-7.35	-6.71	-5.77	-4.59	-3.36	-2.25	-1.37	-0.68	-0.02	0.71	1.46	2	2.08	1.59	0.71	-0.25	-0.89	-1.04	-0.75	-0.27	0.14	0.33	0.26	-0.02	-0.41	-0.86	-1.33	-1.76	-2.08	-2.3	-2.52	-2.88	-3.49	-4.36	-5.4	-6.46	-7.44	-8.29	-8.98	-9.45	-9.62	-9.38	-8.72	-7.69	-6.38	-4.89	-3.26	-1.52	0.25	1.94	3.42	4.6	5.48	6.08	6.46	6.63	6.6	6.41	6.13	5.86	5.64	5.46	5.23	4.88	4.4	3.83	3.23	2.61	1.92	1.12	0.22	-0.65	-1.34	-1.75	-1.89	-1.95	-2.2	-2.87	-4.05	-5.63	-7.27	-8.55	-9.14	-8.84	-7.74	-6.15	-4.48	-3.09	-2.15	-1.61	-1.26	-0.9	-0.45	0.03	0.42	0.67	0.81	0.93	1.08	1.24	1.29	1.18	1	0.91	1.13	1.68
-8.72	-7.69	-6.38	-4.89	-3.26	-1.52	0.25	1.94	3.42	4.6	5.48	6.08	6.46	6.63	6.6	6.41	6.13	5.86	5.64	5.46	5.23	4.88	4.4	3.83	3.23	2.61	1.92	1.12	0.22	-0.65	-1.34	-1.75	-1.89	-1.95	-2.2	-2.87	-4.05	-5.63	-7.27	-8.55	-9.14	-8.84	-7.74	-6.15	-4.48	-3.09	-2.15	-1.61	-1.26	-0.9	-0.45	0.03	0.42	0.67	0.81	0.93	1.08	1.24	1.29	1.18	1	0.91	1.13	1.68	2.44	3.19	3.7	3.88	3.77	3.42	2.86	2.1	1.2	0.26	-0.57	-1.28	-2	-2.98	-4.41	-6.21	-8	-9.22	-9.38	-8.37	-6.53	-4.52	-3.01	-2.38	-2.65	-3.41	-4.16	-4.48	-4.21	-3.41	-2.34	-1.24	-0.3	0.43	0.94	1.27	1.44	1.49	1.43	1.34	1.28	1.3	1.42	1.65	1.89	2.04	1.95	1.51	0.71	-0.34	-1.43	-2.37	-3.07	-3.59	-4.06	-4.6	-5.24	-5.87	-6.37	-6.6	-6.52	-6.15	-5.55	-4.72
2.44	3.19	3.7	3.88	3.77	3.42	2.86	2.1	1.2	0.26	-0.57	-1.28	-2	-2.98	-4.41	-6.21	-8	-9.22	-9.38	-8.37	-6.53	-4.52	-3.01	-2.38	-2.65	-3.41	-4.16	-4.48	-4.21	-3.41	-2.34	-1.24	-0.3	0.43	0.94	1.27	1.44	1.49	1.43	1.34	1.28	1.3	1.42	1.65	1.89	2.04	1.95	1.51	0.71	-0.34	-1.43	-2.37	-3.07	-3.59	-4.06	-4.6	-5.24	-5.87	-6.37	-6.6	-6.52	-6.15	-5.55	-4.72	-3.69	-2.44	-1.06	0.3	1.48	2.33	2.78	2.88	2.74	2.5	2.34	2.36	2.58	2.96	3.37	3.61	3.52	3.04	2.22	1.26	0.42	-0.13	-0.35	-0.35	-0.3	-0.36	-0.58	-1	-1.62	-2.46	-3.53	-4.85	-6.36	-7.94	-9.5	-10.93	-12.16	-13.08	-13.55	-13.43	-12.62	-11.19	-9.37	-7.5	-5.84	-4.54	-3.53	-2.65	-1.7	-0.54	0.78	2.16	3.38	4.27	4.68	4.55	3.9	2.84	1.59	0.44	-0.29	-0.36	0.26	1.37
-3.69	-2.44	-1.06	0.3	1.48	2.33	2.78	2.88	2.74	2.5	2.34	2.36	2.58	2.96	3.37	3.61	3.52	3.04	2.22	1.26	0.42	-0.13	-0.35	-0.35	-0.3	-0.36	-0.58	-1	-1.62	-2.46	-3.53	-4.85	-6.36	-7.94	-9.5	-10.93	-12.16	-13.08	-13.55	-13.43	-12.62	-11.19	-9.37	-7.5	-5.84	-4.54	-3.53	-2.65	-1.7	-0.54	0.78	2.16	3.38	4.27	4.68	4.55	3.9	2.84	1.59	0.44	-0.29	-0.36	0.26	1.37	2.62	3.65	4.22	4.33	4.14	3.88	3.63	3.31	2.71	1.64	0.01	-2.05	-4.26	-6.3	-7.84	-8.68	-8.73	-8.08	-6.93	-5.55	-4.19	-2.93	-1.69	-0.27	1.47	3.52	5.64	7.45	8.61	8.98	8.69	8.09	7.65	7.77	8.75	10.7	13.57	17.14	21.08	24.92	28.19	30.52	31.77	32.1	31.85	31.39	30.9	30.24	28.98	26.55	22.5	16.61	9.02	0.15	-9.38	-18.83	-27.5	-34.74	-40.02	-42.94	-43.37	-41.49	-37.95	-33.76
2.62	3.65	4.22	4.33	4.14	3.88	3.63	3.31	2.71	1.64	0.01	-2.05	-4.26	-6.3	-7.84	-8.68	-8.73	-8.08	-6.93	-5.55	-4.19	-2.93	-1.69	-0.27	1.47	3.52	5.64	7.45	8.61	8.98	8.69	8.09	7.65	7.77	8.75	10.7	13.57	17.14	21.08	24.92	28.19	30.52	31.77	32.1	31.85	31.39	30.9	30.24	28.98	26.55	22.5	16.61	9.02	0.15	-9.38	-18.83	-27.5	-34.74	-40.02	-42.94	-43.37	-41.49	-37.95	-33.76	-30.15	-28.14	-28.16	-29.82	-32.05	-33.55	-33.33	-31.23	-27.9	-24.55	-22.34	-21.9	-23.13	-25.28	-27.39	-28.6	-28.44	-26.97	-24.65	-22.13	-19.93	-18.21	-16.69	-14.75	-11.69	-7.09	-0.94	6.33	14.06	21.64	28.72	35.2	41.14	46.59	51.47	55.61	58.9	61.33	63.01	64.01	64.26	63.5	61.32	57.42	51.77	44.71	36.77	28.56	20.51	12.81	5.58	-1.05	-6.76	-11.14	-13.94	-15.2	-15.38	-15.19	-15.3	-16.13	-17.66	-19.57	-21.38	-22.69
-30.15	-28.14	-28.16	-29.82	-32.05	-33.55	-33.33	-31.23	-27.9	-24.55	-22.34	-21.9	-23.13	-25.28	-27.39	-28.6	-28.44	-26.97	-24.65	-22.13	-19.93	-18.21	-16.69	-14.75	-11.69	-7.09	-0.94	6.33	14.06	21.64	28.72	35.2	41.14	46.59	51.47	55.61	58.9	61.33	63.01	64.01	64.26	63.5	61.32	57.42	51.77	44.71	36.77	28.56	20.51	12.81	5.58	-1.05	-6.76	-11.14	-13.94	-15.2	-15.38	-15.19	-15.3	-16.13	-17.66	-19.57	-21.38	-22.69	-23.32	-23.27	-22.59	-21.31	-19.46	-17.18	-14.83	-13.02	-12.42	-13.47	-16.13	-19.8	-23.51	-26.33	-27.68	-27.48	-26.03	-23.72	-20.85	-17.56	-13.97	-10.28	-6.89	-4.14	-2.21	-0.84	0.5	2.45	5.38	9.16	13.21	16.73	19.09	20.06	19.87	19.01	17.97	17.07	16.38	15.88	15.48	15.17	14.89	14.55	14.01	13.18	12.1	11.01	10.22	9.99	10.31	10.95	11.54	11.71	11.26	10.18	8.51	6.29	3.5	0.17	-3.51	-7.11	-10	-11.61
-23.32	-23.27	-22.59	-21.31	-19.46	-17.18	-14.83	-13.02	-12.42	-13.47	-16.13	-19.8	-23.51	-26.33	-27.68	-27.48	-26.03	-23.72	-20.85	-17.56	-13.97	-10.28	-6.89	-4.14	-2.21	-0.84	0.5	2.45	5.38	9.16	13.21	16.73	19.09	20.06	19.87	19.01	17.97	17.07	16.38	15.88	15.48	15.17	14.89	14.55	14.01	13.18	12.1	11.01	10.22	9.99	10.31	10.95	11.54	11.71	11.26	10.18	8.51	6.29	3.5	0.17	-3.51	-7.11	-10	-11.61	-11.61	-10.1	-7.58	-4.66	-1.9	0.44	2.34	3.9	5.22	6.31	7.07	7.45	7.44	7.17	6.78	6.37	5.94	5.33	4.4	3.09	1.48	-0.17	-1.56	-2.41	-2.62	-2.22	-1.41	-0.46	0.42	1.08	1.45	1.47	1.06	0.05	-1.64	-4.02	-6.88	-9.78	-12.24	-13.86	-14.43	-14.05	-12.97	-11.47	-9.79	-8.01	-6.16	-4.18	-1.99	0.47	3.21	6.16	9.12	11.79	13.91	15.33	16.05	16.24	16.12	15.84	15.5	15.08	14.59	14.07
-11.61	-10.1	-7.58	-4.66	-1.9	0.44	2.34	3.9	5.22	6.31	7.07	7.45	7.44	7.17	6.78	6.37	5.94	5.33	4.4	3.09	1.48	-0.17	-1.56	-2.41	-2.62	-2.22	-1.41	-0.46	0.42	1.08	1.45	1.47	1.06	0.05	-1.64	-4.02	-6.88	-9.78	-12.24	-13.86	-14.43	-14.05	-12.97	-11.47	-9.79	-8.01	-6.16	-4.18	-1.99	0.47	3.21	6.16	9.12	11.79	13.91	15.33	16.05	16.24	16.12	15.84	15.5	15.08	14.59	14.07	13.62	13.29	13.09	12.88	12.43	11.51	10	7.93	5.52	3.07	0.86	-0.9	-2.17	-3.01	-3.51	-3.81	-4.01	-4.24	-4.58	-5.11	-5.85	-6.76	-7.75	-8.63	-9.17	-9.13	-8.38	-6.95	-5.09	-3.14	-1.43	-0.12	0.83	1.59	2.36	3.2	4.05	4.74	5.1	5.05	4.63	3.94	3.11	2.23	1.39	0.62	-0.04	-0.57	-0.96	-1.25	-1.44	-1.59	-1.72	-1.88	-2.11	-2.48	-3.02	-3.77	-4.74	-5.97	-7.42	-9.04	-10.67	-12.1
13.62	13.29	13.09	12.88	12.43	11.51	10	7.93	5.52	3.07	0.86	-0.9	-2.17	-3.01	-3.51	-3.81	-4.01	-4.24	-4.58	-5.11	-5.85	-6.76	-7.75	-8.63	-9.17	-9.13	-8.38	-6.95	-5.09	-3.14	-1.43	-0.12	0.83	1.59	2.36	3.2	4.05	4.74	5.1	5.05	4.63	3.94	3.11	2.23	1.39	0.62	-0.04	-0.57	-0.96	-1.25	-1.44	-1.59	-1.72	-1.88	-2.11	-2.48	-3.02	-3.77	-4.74	-5.97	-7.42	-9.04	-10.67	-12.1	-13.03	-13.2	-12.45	-10.83	-8.51	-5.84	-3.22	-1	0.56	1.38	1.53	1.18	0.59	-0	-0.37	-0.41	-0.07	0.56	1.36	2.2	2.95	3.52	3.89	4.06	4.08	3.98	3.77	3.43	2.97	2.41	1.78	1.14	0.49	-0.16	-0.86	-1.67	-2.69	-3.97	-5.44	-6.89	-8.03	-8.59	-8.47	-7.81	-6.93	-6.18	-5.72	-5.5	-5.24	-4.68	-3.71	-2.46	-1.2	-0.21	0.36	0.49	0.3	-0.12	-0.74	-1.56	-2.53	-3.5	-4.16	-4.25
-13.03	-13.2	-12.45	-10.83	-8.51	-5.84	-3.22	-1	0.56	1.38	1.53	1.18	0.59	-0	-0.37	-0.41	-0.07	0.56	1.36	2.2	2.95	3.52	3.89	4.06	4.08	3.98	3.77	3.43	2.97	2.41	1.78	1.14	0.49	-0.16	-0.86	-1.67	-2.69	-3.97	-5.44	-6.89	-8.03	-8.59	-8.47	-7.81	-6.93	-6.18	-5.72	-5.5	-5.24	-4.68	-3.71	-2.46	-1.2	-0.21	0.36	0.49	0.3	-0.12	-0.74	-1.56	-2.53	-3.5	-4.16	-4.25	-3.66	-2.51	-1.18	-0.12	0.33	0.09	-0.63	-1.47	-2.1	-2.33	-2.19	-1.81	-1.36	-0.95	-0.68	-0.66	-1.05	-1.99	-3.48	-5.36	-7.27	-8.81	-9.7	-9.87	-9.38	-8.4	-6.98	-5.11	-2.77	0	2.96	5.79	8.14	9.81	10.77	11.12	10.97	10.42	9.53	8.37	7.08	5.88	5.01	4.59	4.55	4.65	4.57	4.03	2.94	1.4	-0.33	-1.93	-3.16	-3.87	-4.08	-3.88	-3.46	-3.01	-2.67	-2.51	-2.57	-2.82	-3.24	-3.79
-3.66	-2.51	-1.18	-0.12	0.33	0.09	-0.63	-1.47	-2.1	-2.33	-2.19	-1.81	-1.36	-0.95	-0.68	-0.66	-1.05	-1.99	-3.48	-5.36	-7.27	-8.81	-9.7	-9.87	-9.38	-8.4	-6.98	-5.11	-2.77	0	2.96	5.79	8.14	9.81	10.77	11.12	10.97	10.42	9.53	8.37	7.08	5.88	5.01	4.59	4.55	4.65	4.57	4.03	2.94	1.4	-0.33	-1.93	-3.16	-3.87	-4.08	-3.88	-3.46	-3.01	-2.67	-2.51	-2.57	-2.82	-3.24	-3.79	-4.38	-4.85	-5.02	-4.78	-4.11	-3.17	-2.17	-1.29	-0.54	0.17	0.95	1.89	2.97	4.03	4.96	5.66	6.12	6.39	6.49	6.41	6.18	5.8	5.35	4.94	4.69	4.64	4.82	5.2	5.73	6.36	7.07	7.78	8.4	8.82	8.98	8.85	8.54	8.18	7.9	7.74	7.69	7.68	7.76	8.1	8.97	10.65	13.25	16.53	19.93	22.74	24.41	24.87	24.51	24.01	23.85	23.9	23.29	20.72	14.9	5.21	-8.16	-24.08	-40.85	-56.42
-4.38	-4.85	-5.02	-4.78	-4.11	-3.17	-2.17	-1.29	-0.54	0.17	0.95	1.89	2.97	4.03	4.96	5.66	6.12	6.39	6.49	6.41	6.18	5.8	5.35	4.94	4.69	4.64	4.82	5.2	5.73	6.36	7.07	7.78	8.4	8.82	8.98	8.85	8.54	8.18	7.9	7.74	7.69	7.68	7.76	8.1	8.97	10.65	13.25	16.53	19.93	22.74	24.41	24.87	24.51	24.01	23.85	23.9	23.29	20.72	14.9	5.21	-8.16	-24.08	-40.85	-56.42	-68.58	-75.24	-74.67	-66.03	-49.79	-27.86	-3.31	20.48	40.7	55.79	65.5	70.55	71.95	70.58	67.08	62.01	56.05	49.94	44.27	39.22	34.41	29.14	22.71	14.82	5.68	-4.12	-13.86	-22.96	-31.13	-38.32	-44.68	-50.43	-55.88	-61.23	-66.57	-71.73	-76.41	-80.35	-83.58	-86.43	-89.3	-92.39	-95.33	-97.28	-97.16	-94.13	-87.8	-78.38	-66.42	-52.68	-38	-23.3	-9.45	2.8	13.15	21.77	29.23	36.08	42.59	48.56	53.58	57.31	59.76	61.34
-68.58	-75.24	-74.67	-66.03	-49.79	-27.86	-3.31	20.48	40.7	55.79	65.5	70.55	71.95	70.58	67.08	62.01	56.05	49.94	44.27	39.22	34.41	29.14	22.71	14.82	5.68	-4.12	-13.86	-22.96	-31.13	-38.32	-44.68	-50.43	-55.88	-61.23	-66.57	-71.73	-76.41	-80.35	-83.58	-86.43	-89.3	-92.39	-95.33	-97.28	-97.16	-94.13	-87.8	-78.38	-66.42	-52.68	-38	-23.3	-9.45	2.8	13.15	21.77	29.23	36.08	42.59	48.56	53.58	57.31	59.76	61.34	62.57	63.77	64.82	65.27	64.55	62.34	58.75	54.29	49.63	45.3	41.47	37.98	34.49	30.8	26.96	23.33	20.31	18.13	16.62	15.31	13.61	11.1	7.73	3.88	0.15	-2.88	-4.96	-6.21	-7.11	-8.16	-9.63	-11.43	-13.11	-14.14	-14.2	-13.31	-11.86	-10.36	-9.12	-8.14	-7.18	-5.98	-4.49	-2.99	-1.94	-1.67	-2.23	-3.31	-4.38	-5	-5.06	-4.76	-4.46	-4.45	-4.83	-5.43	-5.99	-6.32	-6.39	-6.3	-6.15	-6.02	-5.89	-5.7
62.57	63.77	64.82	65.27	64.55	62.34	58.75	54.29	49.63	45.3	41.47	37.98	34.49	30.8	26.96	23.33	20.31	18.13	16.62	15.31	13.61	11.1	7.73	3.88	0.15	-2.88	-4.96	-6.21	-7.11	-8.16	-9.63	-11.43	-13.11	-14.14	-14.2	-13.31	-11.86	-10.36	-9.12	-8.14	-7.18	-5.98	-4.49	-2.99	-1.94	-1.67	-2.23	-3.31	-4.38	-5	-5.06	-4.76	-4.46	-4.45	-4.83	-5.43	-5.99	-6.32	-6.39	-6.3	-6.15	-6.02	-5.89	-5.7	-5.42	-5.08	-4.76	-4.6	-4.71	-5.2	-6.1	-7.38	-8.87	-10.28	-11.28	-11.58	-11.14	-10.13	-8.84	-7.53	-6.34	-5.19	-3.92	-2.45	-0.87	0.58	1.58	1.93	1.66	0.97	0.2	-0.38	-0.66	-0.68	-0.61	-0.6	-0.74	-1	-1.31	-1.6	-1.89	-2.21	-2.65	-3.23	-3.9	-4.59	-5.25	-5.85	-6.41	-6.96	-7.49	-7.98	-8.46	-8.99	-9.61	-10.32	-11	-11.49	-11.6	-11.25	-10.53	-9.61	-8.7	-7.93	-7.32	-6.73	-6.05	-5.15
-5.42	-5.08	-4.76	-4.6	-4.71	-5.2	-6.1	-7.38	-8.87	-10.28	-11.28	-11.58	-11.14	-10.13	-8.84	-7.53	-6.34	-5.19	-3.92	-2.45	-0.87	0.58	1.58	1.93	1.66	0.97	0.2	-0.38	-0.66	-0.68	-0.61	-0.6	-0.74	-1	-1.31	-1.6	-1.89	-2.21	-2.65	-3.23	-3.9	-4.59	-5.25	-5.85	-6.41	-6.96	-7.49	-7.98	-8.46	-8.99	-9.61	-10.32	-11	-11.49	-11.6	-11.25	-10.53	-9.61	-8.7	-7.93	-7.32	-6.73	-6.05	-5.15	-4.09	-3	-2.13	-1.64	-1.58	-1.84	-2.18	-2.39	-2.36	-2.15	-1.92	-1.77	-1.7	-1.6	-1.33	-0.87	-0.35	0.05	0.17	0.01	-0.31	-0.65	-0.93	-1.22	-1.64	-2.34	-3.36	-4.61	-5.95	-7.18	-8.17	-8.79	-9.02	-8.83	-8.27	-7.45	-6.49	-5.49	-4.52	-3.58	-2.59	-1.53	-0.39	0.76	1.72	2.36	2.61	2.58	2.46	2.5	2.83	3.42	4.04	4.42	4.38	3.86	2.98	1.94	0.93	0.08	-0.52	-0.87	-1.01	-1.04
-4.09	-3	-2.13	-1.64	-1.58	-1.84	-2.18	-2.39	-2.36	-2.15	-1.92	-1.77	-1.7	-1.6	-1.33	-0.87	-0.35	0.05	0.17	0.01	-0.31	-0.65	-0.93	-1.22	-1.64	-2.34	-3.36	-4.61	-5.95	-7.18	-8.17	-8.79	-9.02	-8.83	-8.27	-7.45	-6.49	-5.49	-4.52	-3.58	-2.59	-1.53	-0.39	0.76	1.72	2.36	2.61	2.58	2.46	2.5	2.83	3.42	4.04	4.42	4.38	3.86	2.98	1.94	0.93	0.08	-0.52	-0.87	-1.01	-1.04	-1.11	-1.33	-1.71	-2.16	-2.51	-2.63	-2.57	-2.53	-2.8	-3.56	-4.75	-6.09	-7.16	-7.66	-7.5	-6.77	-5.72	-4.58	-3.46	-2.34	-1.19	-0.01	1.1	2.03	2.68	3.05	3.23	3.31	3.34	3.32	3.17	2.85	2.39	1.9	1.54	1.38	1.46	1.71	2.01	2.28	2.45	2.52	2.48	2.32	2.06	1.71	1.31	0.88	0.43	-0.07	-0.67	-1.38	-2.18	-3.02	-3.8	-4.48	-5.09	-5.68	-6.33	-7.02	-7.64	-8.03	-8	-7.45
-1.11	-1.33	-1.71	-2.16	-2.51	-2.63	-2.57	-2.53	-2.8	-3.56	-4.75	-6.09	-7.16	-7.66	-7.5	-6.77	-5.72	-4.58	-3.46	-2.34	-1.19	-0.01	1.1	2.03	2.68	3.05	3.23	3.31	3.34	3.32	3.17	2.85	2.39	1.9	1.54	1.38	1.46	1.71	2.01	2.28	2.45	2.52	2.48	2.32	2.06	1.71	1.31	0.88	0.43	-0.07	-0.67	-1.38	-2.18	-3.02	-3.8	-4.48	-5.09	-5.68	-6.33	-7.02	-7.64	-8.03	-8	-7.45	-6.45	-5.2	-3.91	-2.78	-1.84	-0.97	-0.04	1.02	2.1	2.97	3.41	3.34	2.94	2.55	2.49	2.88	3.59	4.34	4.81	4.87	4.59	4.16	3.75	3.41	3.05	2.58	1.93	1.12	0.24	-0.62	-1.39	-2.03	-2.54	-2.93	-3.22	-3.47	-3.7	-3.88	-3.94	-3.84	-3.58	-3.25	-3.07	-3.24	-3.86	-4.92	-6.23	-7.52	-8.48	-8.88	-8.61	-7.77	-6.55	-5.27	-4.2	-3.44	-2.95	-2.53	-1.98	-1.17	-0.13	0.97	2.01	2.86
-6.45	-5.2	-3.91	-2.78	-1.84	-0.97	-0.04	1.02	2.1	2.97	3.41	3.34	2.94	2.55	2.49	2.88	3.59	4.34	4.81	4.87	4.59	4.16	3.75	3.41	3.05	2.58	1.93	1.12	0.24	-0.62	-1.39	-2.03	-2.54	-2.93	-3.22	-3.47	-3.7	-3.88	-3.94	-3.84	-3.58	-3.25	-3.07	-3.24	-3.86	-4.92	-6.23	-7.52	-8.48	-8.88	-8.61	-7.77	-6.55	-5.27	-4.2	-3.44	-2.95	-2.53	-1.98	-1.17	-0.13	0.97	2.01	2.86	3.54	4.05	4.4	4.54	4.4	3.99	3.41	2.84	2.46	2.35	2.48	2.7	2.88	2.88	2.65	2.19	1.53	0.73	-0.15	-1.06	-1.89	-2.58	-3.06	-3.3	-3.34	-3.25	-3.14	-3.13	-3.29	-3.65	-4.14	-4.63	-4.94	-4.89	-4.38	-3.43	-2.28	-1.23	-0.59	-0.48	-0.71	-0.91	-0.66	0.24	1.62	3.04	3.97	4.14	3.68	3	2.53	2.51	2.81	3.11	3.09	2.68	2.03	1.41	1.03	0.87	0.76	0.45	-0.16	-1.03
3.54	4.05	4.4	4.54	4.4	3.99	3.41	2.84	2.46	2.35	2.48	2.7	2.88	2.88	2.65	2.19	1.53	0.73	-0.15	-1.06	-1.89	-2.58	-3.06	-3.3	-3.34	-3.25	-3.14	-3.13	-3.29	-3.65	-4.14	-4.63	-4.94	-4.89	-4.38	-3.43	-2.28	-1.23	-0.59	-0.48	-0.71	-0.91	-0.66	0.24	1.62	3.04	3.97	4.14	3.68	3	2.53	2.51	2.81	3.11	3.09	2.68	2.03	1.41	1.03	0.87	0.76	0.45	-0.16	-1.03	-1.95	-2.69	-3.12	-3.25	-3.21	-3.17	-3.3	-3.68	-4.3	-5.11	-5.99	-6.86	-7.6	-8.11	-8.31	-8.18	-7.77	-7.21	-6.64	-6.16	-5.7	-5.13	-4.31	-3.2	-1.97	-0.84	-0.06	0.29	0.36	0.37	0.52	0.86	1.27	1.56	1.6	1.4	1.09	0.88	0.9	1.19	1.67	2.21	2.68	2.95	2.92	2.48	1.65	0.54	-0.62	-1.58	-2.16	-2.39	-2.49	-2.76	-3.41	-4.42	-5.57	-6.52	-7.01	-6.96	-6.5	-5.87	-5.28	-4.83
-1.95	-2.69	-3.12	-3.25	-3.21	-3.17	-3.3	-3.68	-4.3	-5.11	-5.99	-6.86	-7.6	-8.11	-8.31	-8.18	-7.77	-7.21	-6.64	-6.16	-5.7	-5.13	-4.31	-3.2	-1.97	-0.84	-0.06	0.29	0.36	0.37	0.52	0.86	1.27	1.56	1.6	1.4	1.09	0.88	0.9	1.19	1.67	2.21	2.68	2.95	2.92	2.48	1.65	0.54	-0.62	-1.58	-2.16	-2.39	-2.49	-2.76	-3.41	-4.42	-5.57	-6.52	-7.01	-6.96	-6.5	-5.87	-5.28	-4.83	-4.45	-4.02	-3.39	-2.53	-1.44	-0.23	0.96	1.99	2.69	2.96	2.81	2.37	1.87	1.5	1.38	1.46	1.57	1.57	1.42	1.17	0.95	0.84	0.82	0.82	0.8	0.77	0.81	0.99	1.28	1.53	1.57	1.26	0.62	-0.24	-1.11	-1.84	-2.4	-2.88	-3.4	-4.06	-4.85	-5.62	-6.18	-6.38	-6.11	-5.44	-4.5	-3.41	-2.29	-1.17	-0.03	1.13	2.28	3.35	4.22	4.81	5.08	5.05	4.81	4.48	4.2	4.02	3.99	4.07
-4.45	-4.02	-3.39	-2.53	-1.44	-0.23	0.96	1.99	2.69	2.96	2.81	2.37	1.87	1.5	1.38	1.46	1.57	1.57	1.42	1.17	0.95	0.84	0.82	0.82	0.8	0.77	0.81	0.99	1.28	1.53	1.57	1.26	0.62	-0.24	-1.11	-1.84	-2.4	-2.88	-3.4	-4.06	-4.85	-5.62	-6.18	-6.38	-6.11	-5.44	-4.5	-3.41	-2.29	-1.17	-0.03	1.13	2.28	3.35	4.22	4.81	5.08	5.05	4.81	4.48	4.2	4.02	3.99	4.07	4.17	4.23	4.21	4.15	4.1	4.1	4.11	4.01	3.65	2.98	2.04	0.99	0	-0.83	-1.54	-2.2	-2.87	-3.56	-4.21	-4.74	-5.12	-5.41	-5.69	-6.03	-6.43	-6.76	-6.89	-6.63	-5.92	-4.84	-3.59	-2.39	-1.44	-0.79	-0.38	-0.09	0.18	0.39	0.52	0.51	0.43	0.38	0.46	0.67	0.95	1.2	1.38	1.53	1.72	1.97	2.23	2.37	2.25	1.83	1.21	0.49	-0.2	-0.83	-1.42	-2.06	-2.79	-3.62	-4.54	-5.53
4.17	4.23	4.21	4.15	4.1	4.1	4.11	4.01	3.65	2.98	2.04	0.99	0	-0.83	-1.54	-2.2	-2.87	-3.56	-4.21	-4.74	-5.12	-5.41	-5.69	-6.03	-6.43	-6.76	-6.89	-6.63	-5.92	-4.84	-3.59	-2.39	-1.44	-0.79	-0.38	-0.09	0.18	0.39	0.52	0.51	0.43	0.38	0.46	0.67	0.95	1.2	1.38	1.53	1.72	1.97	2.23	2.37	2.25	1.83	1.21	0.49	-0.2	-0.83	-1.42	-2.06	-2.79	-3.62	-4.54	-5.53	-6.49	-7.31	-7.82	-7.84	-7.3	-6.26	-4.95	-3.61	-2.42	-1.4	-0.41	0.72	2.06	3.49	4.76	5.6	5.87	5.58	4.94	4.2	3.58	3.2	3.07	3.1	3.16	3.15	3.03	2.84	2.66	2.55	2.51	2.46	2.33	2	1.47	0.77	-0.05	-0.92	-1.81	-2.69	-3.51	-4.24	-4.91	-5.63	-6.52	-7.66	-8.97	-10.23	-11.12	-11.4	-11.02	-10.08	-8.84	-7.5	-6.18	-4.89	-3.6	-2.3	-1.07	0	0.87	1.6	2.3	3.07
-6.49	-7.31	-7.82	-7.84	-7.3	-6.26	-4.95	-3.61	-2.42	-1.4	-0.41	0.72	2.06	3.49	4.76	5.6	5.87	5.58	4.94	4.2	3.58	3.2	3.07	3.1	3.16	3.15	3.03	2.84	2.66	2.55	2.51	2.46	2.33	2	1.47	0.77	-0.05	-0.92	-1.81	-2.69	-3.51	-4.24	-4.91	-5.63	-6.52	-7.66	-8.97	-10.23	-11.12	-11.4	-11.02	-10.08	-8.84	-7.5	-6.18	-4.89	-3.6	-2.3	-1.07	0	0.87	1.6	2.3	3.07	3.91	4.7	5.28	5.54	5.45	5.14	4.73	4.37	4.11	3.95	3.85	3.77	3.67	3.5	3.24	2.87	2.36	1.73	0.99	0.17	-0.7	-1.57	-2.45	-3.36	-4.37	-5.56	-6.9	-8.29	-9.49	-10.27	-10.43	-9.94	-8.87	-7.4	-5.68	-3.84	-1.97	-0.12	1.63	3.18	4.44	5.32	5.77	5.84	5.64	5.33	5.13	5.2	5.58	6.21	6.87	7.36	7.56	7.5	7.34	7.24	7.26	7.29	7.13	6.59	5.61	4.28	2.79	1.36
3.91	4.7	5.28	5.54	5.45	5.14	4.73	4.37	4.11	3.95	3.85	3.77	3.67	3.5	3.24	2.87	2.36	1.73	0.99	0.17	-0.7	-1.57	-2.45	-3.36	-4.37	-5.56	-6.9	-8.29	-9.49	-10.27	-10.43	-9.94	-8.87	-7.4	-5.68	-3.84	-1.97	-0.12	1.63	3.18	4.44	5.32	5.77	5.84	5.64	5.33	5.13	5.2	5.58	6.21	6.87	7.36	7.56	7.5	7.34	7.24	7.26	7.29	7.13	6.59	5.61	4.28	2.79	1.36	0.06	-1.08	-2.14	-3.23	-4.41	-5.68	-7.03	-8.36	-9.5	-10.27	-10.51	-10.16	-9.28	-8	-6.5	-4.91	-3.36	-1.93	-0.68	0.34	1.14	1.73	2.17	2.53	2.83	3.04	3.13	3.07	2.93	2.8	2.84	3.11	3.62	4.26	4.85	5.21	5.22	4.89	4.26	3.48	2.66	1.85	1.05	0.19	-0.82	-2.04	-3.44	-4.94	-6.36	-7.56	-8.39	-8.76	-8.62	-7.97	-6.84	-5.29	-3.41	-1.31	0.89	3.09	5.16	6.98	8.48	9.57
0.06	-1.08	-2.14	-3.23	-4.41	-5.68	-7.03	-8.36	-9.5	-10.27	-10.51	-10.16	-9.28	-8	-6.5	-4.91	-3.36	-1.93	-0.68	0.34	1.14	1.73	2.17	2.53	2.83	3.04	3.13	3.07	2.93	2.8	2.84	3.11	3.62	4.26	4.85	5.21	5.22	4.89	4.26	3.48	2.66	1.85	1.05	0.19	-0.82	-2.04	-3.44	-4.94	-6.36	-7.56	-8.39	-8.76	-8.62	-7.97	-6.84	-5.29	-3.41	-1.31	0.89	3.09	5.16	6.98	8.48	9.57	10.18	10.27	9.83	8.96	7.88	6.85	6.1	5.75	5.75	5.9	5.96	5.76	5.27	4.56	3.72	2.8	1.77	0.65	-0.53	-1.63	-2.53	-3.24	-3.95	-4.98	-6.63	-8.97	-11.73	-14.4	-16.37	-17.23	-16.86	-15.49	-13.45	-11.11	-8.67	-6.2	-3.72	-1.23	1.2	3.51	5.61	7.41	8.82	9.77	10.21	10.17	9.75	9.12	8.45	7.9	7.57	7.45	7.5	7.66	7.83	7.94	7.94	7.75	7.32	6.6	5.54	4.17	2.59	0.96
10.18	10.27	9.83	8.96	7.88	6.85	6.1	5.75	5.75	5.9	5.96	5.76	5.27	4.56	3.72	2.8	1.77	0.65	-0.53	-1.63	-2.53	-3.24	-3.95	-4.98	-6.63	-8.97	-11.73	-14.4	-16.37	-17.23	-16.86	-15.49	-13.45	-11.11	-8.67	-6.2	-3.72	-1.23	1.2	3.51	5.61	7.41	8.82	9.77	10.21	10.17	9.75	9.12	8.45	7.9	7.57	7.45	7.5	7.66	7.83	7.94	7.94	7.75	7.32	6.6	5.54	4.17	2.59	0.96	-0.58	-1.93	-3.15	-4.41	-5.93	-7.83	-10.03	-12.25	-14.03	-14.91	-14.63	-13.15	-10.73	-7.8	-4.8	-2.13	0.07	1.82	3.28	4.65	6.01	7.35	8.54	9.42	9.92	10.07	9.99	9.78	9.49	9.1	8.58	7.95	7.28	6.67	6.21	5.9	5.68	5.45	5.09	4.53	3.77	2.8	1.66	0.39	-0.96	-2.37	-3.75	-5.07	-6.36	-7.63	-8.96	-10.35	-11.69	-12.78	-13.39	-13.3	-12.49	-11.04	-9.11	-6.85	-4.38	-1.78	0.82	3.2
-0.58	-1.93	-3.15	-4.41	-5.93	-7.83	-10.03	-12.25	-14.03	-14.91	-14.63	-13.15	-10.73	-7.8	-4.8	-2.13	0.07	1.82	3.28	4.65	6.01	7.35	8.54	9.42	9.92	10.07	9.99	9.78	9.49	9.1	8.58	7.95	7.28	6.67	6.21	5.9	5.68	5.45	5.09	4.53	3.77	2.8	1.66	0.39	-0.96	-2.37	-3.75	-5.07	-6.36	-7.63	-8.96	-10.35	-11.69	-12.78	-13.39	-13.3	-12.49	-11.04	-9.11	-6.85	-4.38	-1.78	0.82	3.2	5.14	6.45	7.1	7.2	6.98	6.66	6.41	6.31	6.39	6.62	6.96	7.42	7.93	8.48	8.99	9.4	9.64	9.64	9.3	8.54	7.3	5.65	3.75	1.83	0.09	-1.36	-2.56	-3.68	-4.92	-6.36	-7.95	-9.5	-10.75	-11.48	-11.57	-10.94	-9.59	-7.53	-4.81	-1.61	1.83	5.21	8.21	10.64	12.38	13.44	13.96	14.04	13.82	13.38	12.75	11.95	11	10	9.11	8.5	8.24	8.25	8.28	8.07	7.4	6.27	4.84	3.36
5.14	6.45	7.1	7.2	6.98	6.66	6.41	6.31	6.39	6.62	6.96	7.42	7.93	8.48	8.99	9.4	9.64	9.64	9.3	8.54	7.3	5.65	3.75	1.83	0.09	-1.36	-2.56	-3.68	-4.92	-6.36	-7.95	-9.5	-10.75	-11.48	-11.57	-10.94	-9.59	-7.53	-4.81	-1.61	1.83	5.21	8.21	10.64	12.38	13.44	13.96	14.04	13.82	13.38	12.75	11.95	11	10	9.11	8.5	8.24	8.25	8.28	8.07	7.4	6.27	4.84	3.36	2	0.85	-0.12	-0.96	-1.7	-2.38	-3.07	-3.92	-5.13	-6.82	-8.92	-11.13	-12.99	-14.01	-13.95	-12.8	-10.84	-8.46	-5.97	-3.55	-1.25	0.92	2.9	4.57	5.83	6.62	7.03	7.25	7.45	7.76	8.19	8.64	9	9.21	9.32	9.43	9.67	10.04	10.42	10.61	10.4	9.67	8.44	6.89	5.22	3.63	2.19	0.91	-0.28	-1.45	-2.66	-3.96	-5.34	-6.78	-8.19	-9.41	-10.2	-10.34	-9.67	-8.21	-6.11	-3.65	-1.11	1.25
2	0.85	-0.12	-0.96	-1.7	-2.38	-3.07	-3.92	-5.13	-6.82	-8.92	-11.13	-12.99	-14.01	-13.95	-12.8	-10.84	-8.46	-5.97	-3.55	-1.25	0.92	2.9	4.57	5.83	6.62	7.03	7.25	7.45	7.76	8.19	8.64	9	9.21	9.32	9.43	9.67	10.04	10.42	10.61	10.4	9.67	8.44	6.89	5.22	3.63	2.19	0.91	-0.28	-1.45	-2.66	-3.96	-5.34	-6.78	-8.19	-9.41	-10.2	-10.34	-9.67	-8.21	-6.11	-3.65	-1.11	1.25	3.3	5	6.36	7.4	8.16	8.68	9.05	9.36	9.68	9.95	10.1	10.02	9.72	9.32	8.98	8.8	8.74	8.64	8.29	7.61	6.67	5.7	4.91	4.39	4.04	3.68	3.13	2.3	1.23	-0.03	-1.42	-2.94	-4.58	-6.28	-7.92	-9.31	-10.25	-10.58	-10.21	-9.19	-7.65	-5.79	-3.81	-1.85	0.04	1.88	3.7	5.5	7.14	8.46	9.31	9.68	9.64	9.35	8.87	8.24	7.43	6.46	5.45	4.62	4.13	4.03	4.22	4.44
3.3	5	6.36	7.4	8.16	8.68	9.05	9.36	9.68	9.95	10.1	10.02	9.72	9.32	8.98	8.8	8.74	8.64	8.29	7.61	6.67	5.7	4.91	4.39	4.04	3.68	3.13	2.3	1.23	-0.03	-1.42	-2.94	-4.58	-6.28	-7.92	-9.31	-10.25	-10.58	-10.21	-9.19	-7.65	-5.79	-3.81	-1.85	0.04	1.88	3.7	5.5	7.14	8.46	9.31	9.68	9.64	9.35	8.87	8.24	7.43	6.46	5.45	4.62	4.13	4.03	4.22	4.44	4.47	4.22	3.69	3.04	2.37	1.74	1.07	0.24	-0.86	-2.26	-3.86	-5.5	-6.95	-8.04	-8.67	-8.79	-8.43	-7.6	-6.33	-4.66	-2.69	-0.61	1.36	2.98	4.15	4.89	5.32	5.57	5.71	5.7	5.45	4.92	4.18	3.44	2.91	2.76	2.99	3.47	3.97	4.31	4.43	4.31	4	3.53	2.9	2.09	1.14	0.11	-0.93	-1.92	-2.88	-3.88	-4.98	-6.24	-7.59	-8.89	-9.99	-10.71	-10.91	-10.48	-9.37	-7.6	-5.28	-2.62
4.47	4.22	3.69	3.04	2.37	1.74	1.07	0.24	-0.86	-2.26	-3.86	-5.5	-6.95	-8.04	-8.67	-8.79	-8.43	-7.6	-6.33	-4.66	-2.69	-0.61	1.36	2.98	4.15	4.89	5.32	5.57	5.71	5.7	5.45	4.92	4.18	3.44	2.91	2.76	2.99	3.47	3.97	4.31	4.43	4.31	4	3.53	2.9	2.09	1.14	0.11	-0.93	-1.92	-2.88	-3.88	-4.98	-6.24	-7.59	-8.89	-9.99	-10.71	-10.91	-10.48	-9.37	-7.6	-5.28	-2.62	0.06	2.49	4.44	5.85	6.73	7.18	7.27	7.04	6.52	5.74	4.75	3.69	2.67	1.84	1.29	1.05	1.07	1.23	1.39	1.45	1.33	1.03	0.61	0.09	-0.51	-1.24	-2.16	-3.28	-4.56	-5.95	-7.36	-8.76	-10.08	-11.23	-12.01	-12.24	-11.79	-10.69	-9.1	-7.28	-5.45	-3.7	-2.03	-0.4	1.2	2.71	4.08	5.23	6.17	6.85	7.25	7.29	6.93	6.2	5.25	4.33	3.62	3.22	3.05	2.95	2.72	2.21	1.39	0.31
0.06	2.49	4.44	5.85	6.73	7.18	7.27	7.04	6.52	5.74	4.75	3.69	2.67	1.84	1.29	1.05	1.07	1.23	1.39	1.45	1.33	1.03	0.61	0.09	-0.51	-1.24	-2.16	-3.28	-4.56	-5.95	-7.36	-8.76	-10.08	-11.23	-12.01	-12.24	-11.79	-10.69	-9.1	-7.28	-5.45	-3.7	-2.03	-0.4	1.2	2.71	4.08	5.23	6.17	6.85	7.25	7.29	6.93	6.2	5.25	4.33	3.62	3.22	3.05	2.95	2.72	2.21	1.39	0.31	-0.89	-2.04	-3.03	-3.79	-4.35	-4.87	-5.51	-6.47	-7.78	-9.36	-10.99	-12.36	-13.2	-13.33	-12.68	-11.33	-9.43	-7.16	-4.73	-2.32	-0.07	1.92	3.57	4.81	5.57	5.84	5.67	5.24	4.76	4.42	4.25	4.17	4.04	3.76	3.34	2.95	2.76	2.84	3.11	3.36	3.37	3.03	2.36	1.49	0.58	-0.28	-1.11	-2.03	-3.16	-4.59	-6.3	-8.14	-9.9	-11.36	-12.34	-12.79	-12.68	-12.06	-10.92	-9.25	-7.07	-4.54	-1.95	0.35
-0.89	-2.04	-3.03	-3.79	-4.35	-4.87	-5.51	-6.47	-7.78	-9.36	-10.99	-12.36	-13.2	-13.33	-12.68	-11.33	-9.43	-7.16	-4.73	-2.32	-0.07	1.92	3.57	4.81	5.57	5.84	5.67	5.24	4.76	4.42	4.25	4.17	4.04	3.76	3.34	2.95	2.76	2.84	3.11	3.36	3.37	3.03	2.36	1.49	0.58	-0.28	-1.11	-2.03	-3.16	-4.59	-6.3	-8.14	-9.9	-11.36	-12.34	-12.79	-12.68	-12.06	-10.92	-9.25	-7.07	-4.54	-1.95	0.35	2.08	3.15	3.7	4.03	4.37	4.83	5.33	5.7	5.84	5.81	5.72	5.73	5.89	6.11	6.29	6.28	6.02	5.51	4.78	3.89	2.91	1.93	1.1	0.48	0.09	-0.18	-0.53	-1.19	-2.32	-3.93	-5.91	-8.03	-9.92	-11.25	-11.77	-11.36	-10.12	-8.28	-6.15	-4.02	-2.04	-0.23	1.47	3.09	4.57	5.76	6.49	6.69	6.47	6.06	5.73	5.66	5.8	6	6.03	5.8	5.4	5.06	4.99	5.24	5.64	5.92	5.79	5.11
2.08	3.15	3.7	4.03	4.37	4.83	5.33	5.7	5.84	5.81	5.72	5.73	5.89	6.11	6.29	6.28	6.02	5.51	4.78	3.89	2.91	1.93	1.1	0.48	0.09	-0.18	-0.53	-1.19	-2.32	-3.93	-5.91	-8.03	-9.92	-11.25	-11.77	-11.36	-10.12	-8.28	-6.15	-4.02	-2.04	-0.23	1.47	3.09	4.57	5.76	6.49	6.69	6.47	6.06	5.73	5.66	5.8	6	6.03	5.8	5.4	5.06	4.99	5.24	5.64	5.92	5.79	5.11	3.96	2.57	1.2	-0.01	-1.05	-2.07	-3.24	-4.68	-6.36	-8.13	-9.76	-11.05	-11.87	-12.14	-11.89	-11.15	-9.94	-8.31	-6.34	-4.12	-1.83	0.35	2.27	3.81	4.94	5.68	6.15	6.45	6.71	7	7.35	7.65	7.83	7.78	7.53	7.17	6.86	6.71	6.76	6.93	7.14	7.31	7.41	7.39	7.21	6.75	5.87	4.53	2.81	0.96	-0.75	-2.13	-3.19	-4.11	-5.18	-6.61	-8.42	-10.4	-12.21	-13.47	-13.89	-13.36	-11.98	-9.97
3.96	2.57	1.2	-0.01	-1.05	-2.07	-3.24	-4.68	-6.36	-8.13	-9.76	-11.05	-11.87	-12.14	-11.89	-11.15	-9.94	-8.31	-6.34	-4.12	-1.83	0.35	2.27	3.81	4.94	5.68	6.15	6.45	6.71	7	7.35	7.65	7.83	7.78	7.53	7.17	6.86	6.71	6.76	6.93	7.14	7.31	7.41	7.39	7.21	6.75	5.87	4.53	2.81	0.96	-0.75	-2.13	-3.19	-4.11	-5.18	-6.61	-8.42	-10.4	-12.21	-13.47	-13.89	-13.36	-11.98	-9.97	-7.65	-5.29	-3.12	-1.24	0.32	1.54	2.47	3.14	3.62	4	4.34	4.7	5.06	5.36	5.55	5.6	5.56	5.51	5.54	5.66	5.8	5.8	5.48	4.71	3.52	2.12	0.79	-0.22	-0.85	-1.24	-1.66	-2.32	-3.3	-4.48	-5.69	-6.76	-7.6	-8.17	-8.38	-8.15	-7.39	-6.1	-4.42	-2.53	-0.66	1.09	2.67	4.07	5.24	6.12	6.65	6.85	6.81	6.61	6.34	6.02	5.65	5.3	5.1	5.23	5.77	6.64	7.59	8.27
-7.65	-5.29	-3.12	-1.24	0.32	1.54	2.47	3.14	3.62	4	4.34	4.7	5.06	5.36	5.55	5.6	5.56	5.51	5.54	5.66	5.8	5.8	5.48	4.71	3.52	2.12	0.79	-0.22	-0.85	-1.24	-1.66	-2.32	-3.3	-4.48	-5.69	-6.76	-7.6	-8.17	-8.38	-8.15	-7.39	-6.1	-4.42	-2.53	-0.66	1.09	2.67	4.07	5.24	6.12	6.65	6.85	6.81	6.61	6.34	6.02	5.65	5.3	5.1	5.23	5.77	6.64	7.59	8.27	8.42	7.97	7.06	5.93	4.82	3.84	2.95	2	0.83	-0.65	-2.43	-4.39	-6.39	-8.28	-9.96	-11.36	-12.4	-13.04	-13.24	-12.97	-12.24	-11.07	-9.47	-7.49	-5.26	-2.96	-0.79	1.04	2.46	3.48	4.21	4.77	5.23	5.59	5.87	6.06	6.19	6.32	6.48	6.67	6.85	7.01	7.14	7.22	7.22	7.02	6.53	5.67	4.45	2.96	1.37	-0.14	-1.45	-2.48	-3.28	-3.94	-4.59	-5.37	-6.35	-7.49	-8.65	-9.59	-10.05	-9.86
8.42	7.97	7.06	5.93	4.82	3.84	2.95	2	0.83	-0.65	-2.43	-4.39	-6.39	-8.28	-9.96	-11.36	-12.4	-13.04	-13.24	-12.97	-12.24	-11.07	-9.47	-7.49	-5.26	-2.96	-0.79	1.04	2.46	3.48	4.21	4.77	5.23	5.59	5.87	6.06	6.19	6.32	6.48	6.67	6.85	7.01	7.14	7.22	7.22	7.02	6.53	5.67	4.45	2.96	1.37	-0.14	-1.45	-2.48	-3.28	-3.94	-4.59	-5.37	-6.35	-7.49	-8.65	-9.59	-10.05	-9.86	-9	-7.6	-5.87	-4.04	-2.25	-0.55	1.09	2.67	4.18	5.53	6.6	7.33	7.69	7.78	7.71	7.63	7.57	7.48	7.28	6.91	6.43	5.97	5.72	5.77	6.11	6.58	6.96	7.06	6.72	5.89	4.63	3.1	1.52	0.13	-0.91	-1.57	-2	-2.43	-3.1	-4.08	-5.31	-6.61	-7.78	-8.73	-9.46	-10.07	-10.61	-11.03	-11.18	-10.9	-10.09	-8.79	-7.13	-5.28	-3.39	-1.52	0.26	1.89	3.24	4.21	4.73	4.84	4.71	4.5
-9	-7.6	-5.87	-4.04	-2.25	-0.55	1.09	2.67	4.18	5.53	6.6	7.33	7.69	7.78	7.71	7.63	7.57	7.48	7.28	6.91	6.43	5.97	5.72	5.77	6.11	6.58	6.96	7.06	6.72	5.89	4.63	3.1	1.52	0.13	-0.91	-1.57	-2	-2.43	-3.1	-4.08	-5.31	-6.61	-7.78	-8.73	-9.46	-10.07	-10.61	-11.03	-11.18	-10.9	-10.09	-8.79	-7.13	-5.28	-3.39	-1.52	0.26	1.89	3.24	4.21	4.73	4.84	4.71	4.5	4.39	4.45	4.7	5.07	5.54	6.02	6.45	6.76	6.88	6.79	6.5	6.05	5.46	4.79	4.03	3.22	2.37	1.48	0.53	-0.53	-1.73	-3.08	-4.52	-5.88	-6.95	-7.54	-7.51	-6.85	-5.7	-4.23	-2.63	-0.98	0.66	2.24	3.61	4.62	5.16	5.23	5.03	4.77	4.61	4.55	4.45	4.19	3.78	3.39	3.22	3.4	3.86	4.39	4.73	4.71	4.34	3.77	3.16	2.67	2.31	1.98	1.55	0.9	-0.01	-1.1	-2.27	-3.42
4.39	4.45	4.7	5.07	5.54	6.02	6.45	6.76	6.88	6.79	6.5	6.05	5.46	4.79	4.03	3.22	2.37	1.48	0.53	-0.53	-1.73	-3.08	-4.52	-5.88	-6.95	-7.54	-7.51	-6.85	-5.7	-4.23	-2.63	-0.98	0.66	2.24	3.61	4.62	5.16	5.23	5.03	4.77	4.61	4.55	4.45	4.19	3.78	3.39	3.22	3.4	3.86	4.39	4.73	4.71	4.34	3.77	3.16	2.67	2.31	1.98	1.55	0.9	-0.01	-1.1	-2.27	-3.42	-4.52	-5.59	-6.69	-7.8	-8.81	-9.52	-9.76	-9.4	-8.47	-7.1	-5.48	-3.8	-2.18	-0.72	0.54	1.59	2.4	2.98	3.33	3.49	3.48	3.39	3.26	3.12	2.98	2.82	2.66	2.47	2.31	2.18	2.1	2.03	1.87	1.53	0.95	0.19	-0.65	-1.38	-1.86	-2.06	-2.07	-2.1	-2.37	-3.03	-4.12	-5.57	-7.19	-8.72	-9.93	-10.65	-10.78	-10.32	-9.3	-7.82	-5.96	-3.88	-1.74	0.23	1.88	3.12	3.94	4.45	4.75	4.97
-4.52	-5.59	-6.69	-7.8	-8.81	-9.52	-9.76	-9.4	-8.47	-7.1	-5.48	-3.8	-2.18	-0.72	0.54	1.59	2.4	2.98	3.33	3.49	3.48	3.39	3.26	3.12	2.98	2.82	2.66	2.47	2.31	2.18	2.1	2.03	1.87	1.53	0.95	0.19	-0.65	-1.38	-1.86	-2.06	-2.07	-2.1	-2.37	-3.03	-4.12	-5.57	-7.19	-8.72	-9.93	-10.65	-10.78	-10.32	-9.3	-7.82	-5.96	-3.88	-1.74	0.23	1.88	3.12	3.94	4.45	4.75	4.97	5.18	5.38	5.54	5.62	5.56	5.32	4.89	4.33	3.73	3.2	2.8	2.56	2.42	2.29	2.08	1.71	1.15	0.42	-0.44	-1.33	-2.18	-2.98	-3.77	-4.66	-5.72	-6.99	-8.36	-9.66	-10.64	-11.16	-11.1	-10.45	-9.31	-7.8	-6.05	-4.22	-2.45	-0.84	0.54	1.67	2.54	3.17	3.54	3.67	3.61	3.4	3.17	2.96	2.82	2.77	2.8	2.9	3.05	3.19	3.24	3.14	2.84	2.4	1.9	1.41	0.91	0.33	-0.45	-1.48
5.18	5.38	5.54	5.62	5.56	5.32	4.89	4.33	3.73	3.2	2.8	2.56	2.42	2.29	2.08	1.71	1.15	0.42	-0.44	-1.33	-2.18	-2.98	-3.77	-4.66	-5.72	-6.99	-8.36	-9.66	-10.64	-11.16	-11.1	-10.45	-9.31	-7.8	-6.05	-4.22	-2.45	-0.84	0.54	1.67	2.54	3.17	3.54	3.67	3.61	3.4	3.17	2.96	2.82	2.77	2.8	2.9	3.05	3.19	3.24	3.14	2.84	2.4	1.9	1.41	0.91	0.33	-0.45	-1.48	-2.7	-3.97	-5.17	-6.24	-7.2	-8.08	-8.88	-9.47	-9.74	-9.61	-9.09	-8.32	-7.39	-6.36	-5.14	-3.65	-1.89	-0.07	1.53	2.61	3.06	2.97	2.6	2.21	1.94	1.73	1.43	0.96	0.38	-0.1	-0.23	0.09	0.75	1.44	1.83	1.76	1.35	0.91	0.74	0.96	1.38	1.64	1.38	0.47	-0.92	-2.46	-3.86	-5.01	-6.02	-7.09	-8.32	-9.56	-10.47	-10.71	-10.07	-8.67	-6.86	-5	-3.31	-1.79	-0.3	1.27	2.84	4.22
-2.7	-3.97	-5.17	-6.24	-7.2	-8.08	-8.88	-9.47	-9.74	-9.61	-9.09	-8.32	-7.39	-6.36	-5.14	-3.65	-1.89	-0.07	1.53	2.61	3.06	2.97	2.6	2.21	1.94	1.73	1.43	0.96	0.38	-0.1	-0.23	0.09	0.75	1.44	1.83	1.76	1.35	0.91	0.74	0.96	1.38	1.64	1.38	0.47	-0.92	-2.46	-3.86	-5.01	-6.02	-7.09	-8.32	-9.56	-10.47	-10.71	-10.07	-8.67	-6.86	-5	-3.31	-1.79	-0.3	1.27	2.84	4.22	5.12	5.4	5.12	4.5	3.8	3.15	2.57	1.98	1.33	0.62	-0.06	-0.6	-0.94	-1.07	-1.06	-0.99	-1	-1.16	-1.54	-2.13	-2.94	-3.91	-5.02	-6.25	-7.58	-8.95	-10.27	-11.34	-11.97	-12.02	-11.45	-10.31	-8.7	-6.73	-4.55	-2.3	-0.14	1.75	3.25	4.33	5.08	5.59	5.95	6.12	5.99	5.56	4.92	4.36	4.13	4.35	4.88	5.37	5.48	5.1	4.37	3.63	3.14	2.96	2.86	2.5	1.63	0.21	-1.61	-3.57
5.12	5.4	5.12	4.5	3.8	3.15	2.57	1.98	1.33	0.62	-0.06	-0.6	-0.94	-1.07	-1.06	-0.99	-1	-1.16	-1.54	-2.13	-2.94	-3.91	-5.02	-6.25	-7.58	-8.95	-10.27	-11.34	-11.97	-12.02	-11.45	-10.31	-8.7	-6.73	-4.55	-2.3	-0.14	1.75	3.25	4.33	5.08	5.59	5.95	6.12	5.99	5.56	4.92	4.36	4.13	4.35	4.88	5.37	5.48	5.1	4.37	3.63	3.14	2.96	2.86	2.5	1.63	0.21	-1.61	-3.57	-5.48	-7.25	-8.86	-10.31	-11.51	-12.34	-12.65	-12.33	-11.38	-9.89	-7.96	-5.75	-3.4	-1.07	1.08	2.9	4.28	5.2	5.73	6.02	6.15	6.18	6.07	5.8	5.35	4.84	4.41	4.17	4.16	4.29	4.42	4.39	4.11	3.6	2.96	2.28	1.61	0.96	0.25	-0.58	-1.56	-2.69	-3.94	-5.33	-6.85	-8.51	-10.24	-11.86	-13.04	-13.46	-12.88	-11.28	-8.88	-6.03	-3.14	-0.47	1.83	3.75	5.3	6.48	7.23	7.54	7.41	6.94
-5.48	-7.25	-8.86	-10.31	-11.51	-12.34	-12.65	-12.33	-11.38	-9.89	-7.96	-5.75	-3.4	-1.07	1.08	2.9	4.28	5.2	5.73	6.02	6.15	6.18	6.07	5.8	5.35	4.84	4.41	4.17	4.16	4.29	4.42	4.39	4.11	3.6	2.96	2.28	1.61	0.96	0.25	-0.58	-1.56	-2.69	-3.94	-5.33	-6.85	-8.51	-10.24	-11.86	-13.04	-13.46	-12.88	-11.28	-8.88	-6.03	-3.14	-0.47	1.83	3.75	5.3	6.48	7.23	7.54	7.41	6.94	6.23	5.42	4.62	3.92	3.43	3.21	3.29	3.58	3.89	4.01	3.76	3.1	2.13	1.05	0.05	-0.73	-1.25	-1.59	-1.88	-2.32	-3.09	-4.29	-5.96	-7.98	-10.08	-11.86	-12.91	-12.93	-11.82	-9.74	-7.02	-4.05	-1.17	1.38	3.54	5.34	6.82	8.05	9.02	9.73	10.15	10.27	10.13	9.75	9.18	8.48	7.73	7.01	6.4	5.94	5.62	5.32	4.87	4.13	3	1.52	-0.19	-1.94	-3.57	-5.04	-6.42	-7.83	-9.42	-11.22
6.23	5.42	4.62	3.92	3.43	3.21	3.29	3.58	3.89	4.01	3.76	3.1	2.13	1.05	0.05	-0.73	-1.25	-1.59	-1.88	-2.32	-3.09	-4.29	-5.96	-7.98	-10.08	-11.86	-12.91	-12.93	-11.82	-9.74	-7.02	-4.05	-1.17	1.38	3.54	5.34	6.82	8.05	9.02	9.73	10.15	10.27	10.13	9.75	9.18	8.48	7.73	7.01	6.4	5.94	5.62	5.32	4.87	4.13	3	1.52	-0.19	-1.94	-3.57	-5.04	-6.42	-7.83	-9.42	-11.22	-13.09	-14.75	-15.87	-16.15	-15.47	-13.87	-11.54	-8.72	-5.68	-2.66	0.14	2.56	4.5	5.96	7	7.67	8.02	8.03	7.71	7.07	6.24	5.41	4.78	4.48	4.5	4.72	4.94	4.97	4.7	4.09	3.2	2.16	1.11	0.16	-0.68	-1.48	-2.4	-3.61	-5.21	-7.23	-9.55	-11.94	-14.08	-15.6	-16.22	-15.77	-14.27	-11.93	-9.05	-6	-3.06	-0.37	2.04	4.27	6.38	8.33	10	11.23	11.91	12.11	12.03	11.96	12.08	12.44
-13.09	-14.75	-15.87	-16.15	-15.47	-13.87	-11.54	-8.72	-5.68	-2.66	0.14	2.56	4.5	5.96	7	7.67	8.02	8.03	7.71	7.07	6.24	5.41	4.78	4.48	4.5	4.72	4.94	4.97	4.7	4.09	3.2	2.16	1.11	0.16	-0.68	-1.48	-2.4	-3.61	-5.21	-7.23	-9.55	-11.94	-14.08	-15.6	-16.22	-15.77	-14.27	-11.93	-9.05	-6	-3.06	-0.37	2.04	4.27	6.38	8.33	10	11.23	11.91	12.11	12.03	11.96	12.08	12.44	12.89	13.2	13.13	12.58	11.58	10.3	8.88	7.46	6.09	4.74	3.37	1.94	0.44	-1.11	-2.68	-4.23	-5.73	-7.23	-8.77	-10.42	-12.18	-13.94	-15.47	-16.44	-16.51	-15.47	-13.3	-10.25	-6.7	-3.06	0.32	3.31	5.88	8.08	9.93	11.4	12.41	12.88	12.8	12.27	11.52	10.78	10.22	9.89	9.68	9.45	9.11	8.68	8.29	8.06	8.05	8.17	8.17	7.82	6.94	5.57	3.92	2.23	0.74	-0.5	-1.59	-2.74	-4.2	-6.07
12.89	13.2	13.13	12.58	11.58	10.3	8.88	7.46	6.09	4.74	3.37	1.94	0.44	-1.11	-2.68	-4.23	-5.73	-7.23	-8.77	-10.42	-12.18	-13.94	-15.47	-16.44	-16.51	-15.47	-13.3	-10.25	-6.7	-3.06	0.32	3.31	5.88	8.08	9.93	11.4	12.41	12.88	12.8	12.27	11.52	10.78	10.22	9.89	9.68	9.45	9.11	8.68	8.29	8.06	8.05	8.17	8.17	7.82	6.94	5.57	3.92	2.23	0.74	-0.5	-1.59	-2.74	-4.2	-6.07	-8.3	-10.66	-12.75	-14.19	-14.66	-14.03	-12.34	-9.8	-6.66	-3.21	0.29	3.6	6.56	9	10.81	11.97	12.53	12.63	12.46	12.23	12.05	11.97	11.94	11.83	11.54	11.04	10.38	9.69	9.05	8.48	7.89	7.17	6.22	5.07	3.82	2.61	1.5	0.43	-0.73	-2.1	-3.72	-5.58	-7.6	-9.74	-11.92	-14.05	-15.95	-17.31	-17.78	-17.09	-15.18	-12.28	-8.81	-5.28	-2.04	0.74	3.13	5.26	7.22	8.93	10.21	10.95	11.17	11.09
-8.3	-10.66	-12.75	-14.19	-14.66	-14.03	-12.34	-9.8	-6.66	-3.21	0.29	3.6	6.56	9	10.81	11.97	12.53	12.63	12.46	12.23	12.05	11.97	11.94	11.83	11.54	11.04	10.38	9.69	9.05	8.48	7.89	7.17	6.22	5.07	3.82	2.61	1.5	0.43	-0.73	-2.1	-3.72	-5.58	-7.6	-9.74	-11.92	-14.05	-15.95	-17.31	-17.78	-17.09	-15.18	-12.28	-8.81	-5.28	-2.04	0.74	3.13	5.26	7.22	8.93	10.21	10.95	11.17	11.09	10.98	11.04	11.28	11.58	11.76	11.78	11.68	11.61	11.63	11.66	11.52	10.99	9.98	8.54	6.85	5.05	3.26	1.47	-0.36	-2.23	-4.13	-6.03	-7.91	-9.82	-11.81	-13.86	-15.84	-17.48	-18.39	-18.28	-17.03	-14.77	-11.82	-8.56	-5.26	-2.03	1.14	4.23	7.16	9.71	11.6	12.7	13.06	12.91	12.54	12.18	11.88	11.59	11.21	10.72	10.21	9.81	9.58	9.42	9.13	8.5	7.41	5.92	4.25	2.65	1.29	0.23	-0.66	-1.59
10.98	11.04	11.28	11.58	11.76	11.78	11.68	11.61	11.63	11.66	11.52	10.99	9.98	8.54	6.85	5.05	3.26	1.47	-0.36	-2.23	-4.13	-6.03	-7.91	-9.82	-11.81	-13.86	-15.84	-17.48	-18.39	-18.28	-17.03	-14.77	-11.82	-8.56	-5.26	-2.03	1.14	4.23	7.16	9.71	11.6	12.7	13.06	12.91	12.54	12.18	11.88	11.59	11.21	10.72	10.21	9.81	9.58	9.42	9.13	8.5	7.41	5.92	4.25	2.65	1.29	0.23	-0.66	-1.59	-2.76	-4.32	-6.23	-8.39	-10.59	-12.62	-14.3	-15.49	-16.05	-15.92	-15.04	-13.43	-11.16	-8.37	-5.19	-1.8	1.62	4.86	7.69	9.95	11.53	12.44	12.75	12.56	11.95	11.03	9.92	8.81	7.93	7.47	7.44	7.77	8.18	8.43	8.29	7.72	6.74	5.46	3.97	2.33	0.57	-1.24	-2.98	-4.57	-5.95	-7.17	-8.37	-9.69	-11.21	-12.85	-14.42	-15.6	-16.12	-15.72	-14.32	-12.04	-9.12	-5.94	-2.82	-0	2.44	4.53	6.3	7.75
-2.76	-4.32	-6.23	-8.39	-10.59	-12.62	-14.3	-15.49	-16.05	-15.92	-15.04	-13.43	-11.16	-8.37	-5.19	-1.8	1.62	4.86	7.69	9.95	11.53	12.44	12.75	12.56	11.95	11.03	9.92	8.81	7.93	7.47	7.44	7.77	8.18	8.43	8.29	7.72	6.74	5.46	3.97	2.33	0.57	-1.24	-2.98	-4.57	-5.95	-7.17	-8.37	-9.69	-11.21	-12.85	-14.42	-15.6	-16.12	-15.72	-14.32	-12.04	-9.12	-5.94	-2.82	-0	2.44	4.53	6.3	7.75	8.81	9.38	9.5	9.31	9.02	8.8	8.76	8.86	8.98	9.01	8.86	8.52	8.04	7.43	6.72	5.89	4.97	4.01	3.06	2.2	1.37	0.48	-0.62	-2.03	-3.81	-5.9	-8.18	-10.47	-12.54	-14.16	-15.02	-14.91	-13.69	-11.46	-8.5	-5.21	-1.98	0.92	3.32	5.23	6.68	7.7	8.34	8.65	8.74	8.67	8.52	8.31	8.01	7.57	6.97	6.24	5.44	4.67	3.98	3.42	2.96	2.54	2.1	1.55	0.81	-0.18	-1.47	-3.07
8.81	9.38	9.5	9.31	9.02	8.8	8.76	8.86	8.98	9.01	8.86	8.52	8.04	7.43	6.72	5.89	4.97	4.01	3.06	2.2	1.37	0.48	-0.62	-2.03	-3.81	-5.9	-8.18	-10.47	-12.54	-14.16	-15.02	-14.91	-13.69	-11.46	-8.5	-5.21	-1.98	0.92	3.32	5.23	6.68	7.7	8.34	8.65	8.74	8.67	8.52	8.31	8.01	7.57	6.97	6.24	5.44	4.67	3.98	3.42	2.96	2.54	2.1	1.55	0.81	-0.18	-1.47	-3.07	-4.88	-6.83	-8.85	-10.88	-12.91	-14.85	-16.54	-17.72	-18.11	-17.53	-15.98	-13.6	-10.66	-7.42	-4.14	-1.03	1.7	3.88	5.39	6.17	6.31	5.98	5.39	4.77	4.27	4.01	3.99	4.11	4.22	4.17	3.92	3.54	3.21	3.11	3.28	3.58	3.78	3.63	3.05	2.09	0.95	-0.15	-1.16	-2.17	-3.42	-5.17	-7.49	-10.18	-12.82	-14.88	-15.95	-15.89	-14.84	-13.11	-11.02	-8.75	-6.34	-3.76	-1.04	1.68	4.22	6.33	7.89	8.81
-4.88	-6.83	-8.85	-10.88	-12.91	-14.85	-16.54	-17.72	-18.11	-17.53	-15.98	-13.6	-10.66	-7.42	-4.14	-1.03	1.7	3.88	5.39	6.17	6.31	5.98	5.39	4.77	4.27	4.01	3.99	4.11	4.22	4.17	3.92	3.54	3.21	3.11	3.28	3.58	3.78	3.63	3.05	2.09	0.95	-0.15	-1.16	-2.17	-3.42	-5.17	-7.49	-10.18	-12.82	-14.88	-15.95	-15.89	-14.84	-13.11	-11.02	-8.75	-6.34	-3.76	-1.04	1.68	4.22	6.33	7.89	8.81	9.13	8.94	8.4	7.66	6.91	6.3	5.9	5.71	5.68	5.73	5.81	5.87	5.81	5.51	4.82	3.67	2.16	0.5	-1.08	-2.4	-3.54	-4.7	-6.17	-8.14	-10.54	-13.1	-15.41	-17.1	-17.92	-17.83	-16.88	-15.23	-13.01	-10.37	-7.41	-4.33	-1.28	1.48	3.76	5.44	6.5	7.04	7.22	7.17	6.94	6.57	6.03	5.39	4.8	4.47	4.54	4.95	5.52	5.88	5.78	5.09	3.89	2.42	0.88	-0.59	-1.97	-3.29	-4.56	-5.84
9.13	8.94	8.4	7.66	6.91	6.3	5.9	5.71	5.68	5.73	5.81	5.87	5.81	5.51	4.82	3.67	2.16	0.5	-1.08	-2.4	-3.54	-4.7	-6.17	-8.14	-10.54	-13.1	-15.41	-17.1	-17.92	-17.83	-16.88	-15.23	-13.01	-10.37	-7.41	-4.33	-1.28	1.48	3.76	5.44	6.5	7.04	7.22	7.17	6.94	6.57	6.03	5.39	4.8	4.47	4.54	4.95	5.52	5.88	5.78	5.09	3.89	2.42	0.88	-0.59	-1.97	-3.29	-4.56	-5.84	-7.18	-8.65	-10.27	-11.97	-13.48	-14.47	-14.58	-13.63	-11.65	-8.87	-5.64	-2.29	0.88	3.66	5.91	7.54	8.56	9.04	9.08	8.8	8.28	7.62	6.92	6.31	5.91	5.76	5.77	5.75	5.53	5.01	4.21	3.26	2.27	1.33	0.46	-0.4	-1.3	-2.31	-3.56	-5.15	-7.19	-9.66	-12.37	-14.98	-17.06	-18.22	-18.23	-17.05	-14.83	-11.82	-8.35	-4.73	-1.27	1.84	4.48	6.63	8.36	9.71	10.7	11.3	11.47	11.21	10.63	9.89
-7.18	-8.65	-10.27	-11.97	-13.48	-14.47	-14.58	-13.63	-11.65	-8.87	-5.64	-2.29	0.88	3.66	5.91	7.54	8.56	9.04	9.08	8.8	8.28	7.62	6.92	6.31	5.91	5.76	5.77	5.75	5.53	5.01	4.21	3.26	2.27	1.33	0.46	-0.4	-1.3	-2.31	-3.56	-5.15	-7.19	-9.66	-12.37	-14.98	-17.06	-18.22	-18.23	-17.05	-14.83	-11.82	-8.35	-4.73	-1.27	1.84	4.48	6.63	8.36	9.71	10.7	11.3	11.47	11.21	10.63	9.89	9.18	8.62	8.26	8	7.75	7.45	7.03	6.53	5.92	5.19	4.27	3.13	1.75	0.22	-1.41	-3.09	-4.82	-6.73	-8.89	-11.38	-14.06	-16.68	-18.84	-20.16	-20.36	-19.38	-17.35	-14.59	-11.4	-8.06	-4.74	-1.55	1.42	4.09	6.43	8.35	9.85	10.92	11.58	11.88	11.92	11.8	11.61	11.36	11.05	10.66	10.21	9.85	9.7	9.84	10.17	10.45	10.36	9.71	8.5	6.94	5.31	3.73	2.16	0.37	-1.91	-4.8	-8.18	-11.69
9.18	8.62	8.26	8	7.75	7.45	7.03	6.53	5.92	5.19	4.27	3.13	1.75	0.22	-1.41	-3.09	-4.82	-6.73	-8.89	-11.38	-14.06	-16.68	-18.84	-20.16	-20.36	-19.38	-17.35	-14.59	-11.4	-8.06	-4.74	-1.55	1.42	4.09	6.43	8.35	9.85	10.92	11.58	11.88	11.92	11.8	11.61	11.36	11.05	10.66	10.21	9.85	9.7	9.84	10.17	10.45	10.36	9.71	8.5	6.94	5.31	3.73	2.16	0.37	-1.91	-4.8	-8.18	-11.69	-14.9	-17.39	-18.91	-19.39	-18.87	-17.52	-15.51	-13	-10.17	-7.12	-3.97	-0.82	2.24	5.05	7.49	9.43	10.81	11.61	11.84	11.57	10.93	10.07	9.17	8.39	7.83	7.51	7.42	7.49	7.67	7.87	8.02	8	7.69	7.03	6.01	4.7	3.21	1.61	-0.03	-1.69	-3.36	-5.07	-6.91	-8.94	-11.16	-13.4	-15.34	-16.52	-16.57	-15.32	-12.88	-9.62	-5.98	-2.38	0.94	3.84	6.27	8.22	9.66	10.65	11.28	11.68	11.91	12.01
-14.9	-17.39	-18.91	-19.39	-18.87	-17.52	-15.51	-13	-10.17	-7.12	-3.97	-0.82	2.24	5.05	7.49	9.43	10.81	11.61	11.84	11.57	10.93	10.07	9.17	8.39	7.83	7.51	7.42	7.49	7.67	7.87	8.02	8	7.69	7.03	6.01	4.7	3.21	1.61	-0.03	-1.69	-3.36	-5.07	-6.91	-8.94	-11.16	-13.4	-15.34	-16.52	-16.57	-15.32	-12.88	-9.62	-5.98	-2.38	0.94	3.84	6.27	8.22	9.66	10.65	11.28	11.68	11.91	12.01	11.93	11.67	11.29	10.86	10.5	10.23	10.03	9.8	9.47	8.98	8.31	7.42	6.26	4.8	3.09	1.27	-0.48	-2.02	-3.38	-4.69	-6.14	-7.91	-10.03	-12.39	-14.72	-16.64	-17.75	-17.71	-16.38	-13.88	-10.58	-7.01	-3.62	-0.71	1.69	3.69	5.44	7	8.35	9.38	10.07	10.43	10.58	10.61	10.58	10.47	10.27	9.99	9.71	9.49	9.42	9.44	9.41	9.11	8.35	7.09	5.45	3.69	2.03	0.6	-0.67	-1.96	-3.5	-5.44
11.93	11.67	11.29	10.86	10.5	10.23	10.03	9.8	9.47	8.98	8.31	7.42	6.26	4.8	3.09	1.27	-0.48	-2.02	-3.38	-4.69	-6.14	-7.91	-10.03	-12.39	-14.72	-16.64	-17.75	-17.71	-16.38	-13.88	-10.58	-7.01	-3.62	-0.71	1.69	3.69	5.44	7	8.35	9.38	10.07	10.43	10.58	10.61	10.58	10.47	10.27	9.99	9.71	9.49	9.42	9.44	9.41	9.11	8.35	7.09	5.45	3.69	2.03	0.6	-0.67	-1.96	-3.5	-5.44	-7.79	-10.42	-13.03	-15.26	-16.78	-17.31	-16.74	-15.07	-12.44	-9.1	-5.33	-1.47	2.19	5.37	7.88	9.64	10.7	11.25	11.46	11.48	11.41	11.27	11.03	10.72	10.38	10.07	9.83	9.65	9.49	9.29	8.98	8.53	7.97	7.31	6.57	5.75	4.85	3.89	2.85	1.76	0.58	-0.7	-2.16	-3.89	-5.97	-8.39	-10.99	-13.52	-15.58	-16.85	-17.06	-16.17	-14.29	-11.66	-8.57	-5.31	-2.12	0.83	3.41	5.63	7.53	9.2	10.66	11.85
-7.79	-10.42	-13.03	-15.26	-16.78	-17.31	-16.74	-15.07	-12.44	-9.1	-5.33	-1.47	2.19	5.37	7.88	9.64	10.7	11.25	11.46	11.48	11.41	11.27	11.03	10.72	10.38	10.07	9.83	9.65	9.49	9.29	8.98	8.53	7.97	7.31	6.57	5.75	4.85	3.89	2.85	1.76	0.58	-0.7	-2.16	-3.89	-5.97	-8.39	-10.99	-13.52	-15.58	-16.85	-17.06	-16.17	-14.29	-11.66	-8.57	-5.31	-2.12	0.83	3.41	5.63	7.53	9.2	10.66	11.85	12.65	12.93	12.65	11.88	10.83	9.68	8.65	7.81	7.19	6.75	6.43	6.15	5.78	5.21	4.37	3.25	1.93	0.53	-0.8	-2	-3.03	-3.94	-4.86	-5.91	-7.23	-8.86	-10.75	-12.72	-14.47	-15.7	-16.17	-15.79	-14.65	-12.92	-10.78	-8.35	-5.68	-2.83	0.12	2.95	5.39	7.18	8.21	8.53	8.33	7.88	7.34	6.83	6.36	5.97	5.69	5.61	5.76	6.09	6.44	6.63	6.55	6.19	5.65	5.02	4.33	3.45	2.27	0.72
12.65	12.93	12.65	11.88	10.83	9.68	8.65	7.81	7.19	6.75	6.43	6.15	5.78	5.21	4.37	3.25	1.93	0.53	-0.8	-2	-3.03	-3.94	-4.86	-5.91	-7.23	-8.86	-10.75	-12.72	-14.47	-15.7	-16.17	-15.79	-14.65	-12.92	-10.78	-8.35	-5.68	-2.83	0.12	2.95	5.39	7.18	8.21	8.53	8.33	7.88	7.34	6.83	6.36	5.97	5.69	5.61	5.76	6.09	6.44	6.63	6.55	6.19	5.65	5.02	4.33	3.45	2.27	0.72	-1.12	-3.03	-4.8	-6.3	-7.56	-8.7	-9.84	-10.99	-12.01	-12.65	-12.66	-11.86	-10.29	-8.06	-5.38	-2.47	0.45	3.19	5.54	7.29	8.28	8.46	7.94	7	5.99	5.18	4.73	4.6	4.64	4.67	4.56	4.28	3.86	3.42	3.05	2.74	2.46	2.07	1.47	0.57	-0.62	-2	-3.49	-5	-6.49	-7.97	-9.42	-10.78	-11.89	-12.59	-12.72	-12.27	-11.27	-9.87	-8.19	-6.38	-4.48	-2.56	-0.64	1.23	2.95	4.42	5.55	6.26
-1.12	-3.03	-4.8	-6.3	-7.56	-8.7	-9.84	-10.99	-12.01	-12.65	-12.66	-11.86	-10.29	-8.06	-5.38	-2.47	0.45	3.19	5.54	7.29	8.28	8.46	7.94	7	5.99	5.18	4.73	4.6	4.64	4.67	4.56	4.28	3.86	3.42	3.05	2.74	2.46	2.07	1.47	0.57	-0.62	-2	-3.49	-5	-6.49	-7.97	-9.42	-10.78	-11.89	-12.59	-12.72	-12.27	-11.27	-9.87	-8.19	-6.38	-4.48	-2.56	-0.64	1.23	2.95	4.42	5.55	6.26	6.52	6.35	5.84	5.16	4.51	4.09	4.05	4.37	4.91	5.45	5.76	5.7	5.26	4.54	3.63	2.6	1.4	-0.04	-1.77	-3.79	-5.97	-8.19	-10.37	-12.43	-14.33	-15.99	-17.23	-17.83	-17.57	-16.36	-14.29	-11.61	-8.64	-5.68	-2.92	-0.43	1.8	3.8	5.57	7.05	8.14	8.73	8.77	8.32	7.55	6.71	6.02	5.6	5.49	5.63	5.9	6.21	6.5	6.7	6.7	6.36	5.59	4.36	2.74	0.94	-0.8	-2.33	-3.62	-4.83
6.52	6.35	5.84	5.16	4.51	4.09	4.05	4.37	4.91	5.45	5.76	5.7	5.26	4.54	3.63	2.6	1.4	-0.04	-1.77	-3.79	-5.97	-8.19	-10.37	-12.43	-14.33	-15.99	-17.23	-17.83	-17.57	-16.36	-14.29	-11.61	-8.64	-5.68	-2.92	-0.43	1.8	3.8	5.57	7.05	8.14	8.73	8.77	8.32	7.55	6.71	6.02	5.6	5.49	5.63	5.9	6.21	6.5	6.7	6.7	6.36	5.59	4.36	2.74	0.94	-0.8	-2.33	-3.62	-4.83	-6.2	-7.93	-10.04	-12.32	-14.37	-15.75	-16.2	-15.65	-14.25	-12.27	-9.97	-7.53	-5.08	-2.68	-0.42	1.58	3.24	4.49	5.31	5.78	5.98	6.07	6.18	6.41	6.8	7.32	7.86	8.35	8.7	8.85	8.76	8.38	7.67	6.64	5.35	3.93	2.57	1.39	0.43	-0.43	-1.36	-2.54	-4.06	-5.8	-7.55	-9.02	-9.99	-10.39	-10.3	-9.82	-9.03	-7.91	-6.41	-4.49	-2.28	-0.04	1.9	3.31	4.09	4.32	4.16	3.73	3.13	2.39
-6.2	-7.93	-10.04	-12.32	-14.37	-15.75	-16.2	-15.65	-14.25	-12.27	-9.97	-7.53	-5.08	-2.68	-0.42	1.58	3.24	4.49	5.31	5.78	5.98	6.07	6.18	6.41	6.8	7.32	7.86	8.35	8.7	8.85	8.76	8.38	7.67	6.64	5.35	3.93	2.57	1.39	0.43	-0.43	-1.36	-2.54	-4.06	-5.8	-7.55	-9.02	-9.99	-10.39	-10.3	-9.82	-9.03	-7.91	-6.41	-4.49	-2.28	-0.04	1.9	3.31	4.09	4.32	4.16	3.73	3.13	2.39	1.6	0.84	0.25	-0.1	-0.15	0.04	0.38	0.74	1	1.01	0.68	-0.04	-1.1	-2.38	-3.73	-5.05	-6.32	-7.63	-9.04	-10.58	-12.19	-13.64	-14.64	-14.88	-14.16	-12.51	-10.14	-7.39	-4.62	-2.07	0.17	2.11	3.83	5.32	6.51	7.24	7.44	7.19	6.66	6.1	5.68	5.42	5.21	4.96	4.57	4.06	3.51	3	2.56	2.14	1.65	0.98	0.04	-1.24	-2.9	-4.92	-7.19	-9.55	-11.78	-13.67	-15.04	-15.77	-15.75	-14.98
1.6	0.84	0.25	-0.1	-0.15	0.04	0.38	0.74	1	1.01	0.68	-0.04	-1.1	-2.38	-3.73	-5.05	-6.32	-7.63	-9.04	-10.58	-12.19	-13.64	-14.64	-14.88	-14.16	-12.51	-10.14	-7.39	-4.62	-2.07	0.17	2.11	3.83	5.32	6.51	7.24	7.44	7.19	6.66	6.1	5.68	5.42	5.21	4.96	4.57	4.06	3.51	3	2.56	2.14	1.65	0.98	0.04	-1.24	-2.9	-4.92	-7.19	-9.55	-11.78	-13.67	-15.04	-15.77	-15.75	-14.98	-13.52	-11.5	-9.08	-6.41	-3.57	-0.6	2.4	5.18	7.41	8.78	9.14	8.64	7.66	6.72	6.19	6.21	6.62	7.09	7.33	7.14	6.56	5.78	5.02	4.44	3.99	3.5	2.69	1.4	-0.37	-2.39	-4.37	-6.02	-7.32	-8.47	-9.81	-11.6	-13.82	-16.12	-17.89	-18.57	-17.84	-15.8	-12.9	-9.69	-6.61	-3.8	-1.17	1.48	4.23	6.93	9.29	11.03	11.98	12.23	12.03	11.68	11.43	11.32	11.29	11.22	11.04	10.83	10.7	10.73
-13.52	-11.5	-9.08	-6.41	-3.57	-0.6	2.4	5.18	7.41	8.78	9.14	8.64	7.66	6.72	6.19	6.21	6.62	7.09	7.33	7.14	6.56	5.78	5.02	4.44	3.99	3.5	2.69	1.4	-0.37	-2.39	-4.37	-6.02	-7.32	-8.47	-9.81	-11.6	-13.82	-16.12	-17.89	-18.57	-17.84	-15.8	-12.9	-9.69	-6.61	-3.8	-1.17	1.48	4.23	6.93	9.29	11.03	11.98	12.23	12.03	11.68	11.43	11.32	11.29	11.22	11.04	10.83	10.7	10.73	10.87	10.97	10.81	10.25	9.26	7.99	6.6	5.25	3.98	2.73	1.41	-0.09	-1.8	-3.75	-5.93	-8.29	-10.76	-13.15	-15.25	-16.8	-17.54	-17.34	-16.19	-14.23	-11.68	-8.79	-5.79	-2.87	-0.17	2.16	4.05	5.45	6.39	6.96	7.26	7.41	7.47	7.52	7.6	7.77	8.04	8.41	8.84	9.22	9.47	9.52	9.35	8.97	8.37	7.53	6.46	5.13	3.61	1.98	0.35	-1.18	-2.58	-3.91	-5.26	-6.71	-8.26	-9.74	-10.89	-11.47
10.87	10.97	10.81	10.25	9.26	7.99	6.6	5.25	3.98	2.73	1.41	-0.09	-1.8	-3.75	-5.93	-8.29	-10.76	-13.15	-15.25	-16.8	-17.54	-17.34	-16.19	-14.23	-11.68	-8.79	-5.79	-2.87	-0.17	2.16	4.05	5.45	6.39	6.96	7.26	7.41	7.47	7.52	7.6	7.77	8.04	8.41	8.84	9.22	9.47	9.52	9.35	8.97	8.37	7.53	6.46	5.13	3.61	1.98	0.35	-1.18	-2.58	-3.91	-5.26	-6.71	-8.26	-9.74	-10.89	-11.47	-11.33	-10.48	-9.07	-7.28	-5.2	-2.89	-0.36	2.29	4.83	7	8.58	9.51	9.93	10.04	10.05	10.04	9.97	9.78	9.43	9	8.61	8.39	8.4	8.61	8.88	9.07	9.07	8.78	8.15	7.19	5.96	4.63	3.35	2.28	1.41	0.62	-0.28	-1.5	-3.11	-5.06	-7.21	-9.4	-11.5	-13.38	-14.88	-15.78	-15.89	-15.09	-13.43	-11.11	-8.41	-5.56	-2.66	0.26	3.14	5.87	8.21	9.98	11.07	11.52	11.51	11.24	10.89	10.61
-11.33	-10.48	-9.07	-7.28	-5.2	-2.89	-0.36	2.29	4.83	7	8.58	9.51	9.93	10.04	10.05	10.04	9.97	9.78	9.43	9	8.61	8.39	8.4	8.61	8.88	9.07	9.07	8.78	8.15	7.19	5.96	4.63	3.35	2.28	1.41	0.62	-0.28	-1.5	-3.11	-5.06	-7.21	-9.4	-11.5	-13.38	-14.88	-15.78	-15.89	-15.09	-13.43	-11.11	-8.41	-5.56	-2.66	0.26	3.14	5.87	8.21	9.98	11.07	11.52	11.51	11.24	10.89	10.61	10.5	10.62	10.99	11.54	12.09	12.46	12.48	12.11	11.42	10.54	9.55	8.49	7.35	6.16	4.99	3.92	2.97	2.07	1.15	0.1	-1.06	-2.26	-3.46	-4.66	-5.98	-7.57	-9.48	-11.63	-13.73	-15.45	-16.45	-16.58	-15.84	-14.4	-12.43	-10.1	-7.48	-4.63	-1.62	1.41	4.29	6.82	8.84	10.31	11.25	11.78	12.04	12.14	12.17	12.16	12.13	12.08	12.02	11.97	11.95	11.97	12.02	12.03	11.89	11.52	10.87	9.96	8.92	7.89
10.5	10.62	10.99	11.54	12.09	12.46	12.48	12.11	11.42	10.54	9.55	8.49	7.35	6.16	4.99	3.92	2.97	2.07	1.15	0.1	-1.06	-2.26	-3.46	-4.66	-5.98	-7.57	-9.48	-11.63	-13.73	-15.45	-16.45	-16.58	-15.84	-14.4	-12.43	-10.1	-7.48	-4.63	-1.62	1.41	4.29	6.82	8.84	10.31	11.25	11.78	12.04	12.14	12.17	12.16	12.13	12.08	12.02	11.97	11.95	11.97	12.02	12.03	11.89	11.52	10.87	9.96	8.92	7.89	6.99	6.15	5.23	4.08	2.61	0.93	-0.72	-2.13	-3.16	-3.9	-4.54	-5.3	-6.31	-7.57	-9	-10.48	-11.92	-13.2	-14.18	-14.68	-14.52	-13.57	-11.83	-9.48	-6.84	-4.25	-1.97	-0.15	1.25	2.35	3.25	4.03	4.66	5.07	5.19	5.04	4.73	4.42	4.26	4.33	4.61	4.97	5.25	5.34	5.22	4.97	4.72	4.54	4.45	4.35	4.1	3.65	2.97	2.09	1.05	-0.14	-1.45	-2.83	-4.18	-5.37	-6.33	-7.07	-7.69	-8.34
6.99	6.15	5.23	4.08	2.61	0.93	-0.72	-2.13	-3.16	-3.9	-4.54	-5.3	-6.31	-7.57	-9	-10.48	-11.92	-13.2	-14.18	-14.68	-14.52	-13.57	-11.83	-9.48	-6.84	-4.25	-1.97	-0.15	1.25	2.35	3.25	4.03	4.66	5.07	5.19	5.04	4.73	4.42	4.26	4.33	4.61	4.97	5.25	5.34	5.22	4.97	4.72	4.54	4.45	4.35	4.1	3.65	2.97	2.09	1.05	-0.14	-1.45	-2.83	-4.18	-5.37	-6.33	-7.07	-7.69	-8.34	-9.11	-9.95	-10.71	-11.14	-10.98	-10.11	-8.59	-6.61	-4.44	-2.29	-0.29	1.49	3.08	4.46	5.58	6.35	6.75	6.83	6.72	6.56	6.47	6.46	6.49	6.45	6.3	6.02	5.64	5.23	4.85	4.51	4.21	3.91	3.53	3.02	2.38	1.62	0.81	-0.02	-0.85	-1.75	-2.81	-4.06	-5.47	-6.89	-8.19	-9.24	-10.07	-10.78	-11.43	-12	-12.3	-12.1	-11.21	-9.65	-7.66	-5.57	-3.66	-2.08	-0.81	0.27	1.24	2.12	2.85	3.38
-9.11	-9.95	-10.71	-11.14	-10.98	-10.11	-8.59	-6.61	-4.44	-2.29	-0.29	1.49	3.08	4.46	5.58	6.35	6.75	6.83	6.72	6.56	6.47	6.46	6.49	6.45	6.3	6.02	5.64	5.23	4.85	4.51	4.21	3.91	3.53	3.02	2.38	1.62	0.81	-0.02	-0.85	-1.75	-2.81	-4.06	-5.47	-6.89	-8.19	-9.24	-10.07	-10.78	-11.43	-12	-12.3	-12.1	-11.21	-9.65	-7.66	-5.57	-3.66	-2.08	-0.81	0.27	1.24	2.12	2.85	3.38	3.69	3.82	3.84	3.77	3.62	3.37	3.01	2.59	2.18	1.85	1.69	1.72	1.94	2.25	2.5	2.54	2.27	1.72	1.05	0.43	-0.04	-0.36	-0.63	-0.96	-1.46	-2.11	-2.93	-3.89	-5.01	-6.34	-7.82	-9.35	-10.72	-11.75	-12.27	-12.22	-11.61	-10.55	-9.19	-7.72	-6.24	-4.81	-3.38	-1.9	-0.4	1	2.06	2.69	2.9	2.93	3.03	3.34	3.8	4.22	4.35	4.09	3.55	2.96	2.49	2.23	2.13	2.05	1.89	1.61
3.69	3.82	3.84	3.77	3.62	3.37	3.01	2.59	2.18	1.85	1.69	1.72	1.94	2.25	2.5	2.54	2.27	1.72	1.05	0.43	-0.04	-0.36	-0.63	-0.96	-1.46	-2.11	-2.93	-3.89	-5.01	-6.34	-7.82	-9.35	-10.72	-11.75	-12.27	-12.22	-11.61	-10.55	-9.19	-7.72	-6.24	-4.81	-3.38	-1.9	-0.4	1	2.06	2.69	2.9	2.93	3.03	3.34	3.8	4.22	4.35	4.09	3.55	2.96	2.49	2.23	2.13	2.05	1.89	1.61	1.23	0.74	0.12	-0.66	-1.57	-2.54	-3.47	-4.29	-4.98	-5.64	-6.33	-7.13	-8.05	-9.01	-9.93	-10.7	-11.21	-11.32	-10.96	-10.13	-8.9	-7.4	-5.76	-4.09	-2.47	-0.96	0.33	1.31	1.98	2.39	2.66	2.86	3	3	2.77	2.34	1.87	1.55	1.55	1.87	2.36	2.82	3.08	3.08	2.86	2.48	1.95	1.27	0.44	-0.51	-1.52	-2.54	-3.51	-4.41	-5.2	-5.92	-6.58	-7.26	-7.99	-8.79	-9.55	-10.09	-10.2	-9.74
1.23	0.74	0.12	-0.66	-1.57	-2.54	-3.47	-4.29	-4.98	-5.64	-6.33	-7.13	-8.05	-9.01	-9.93	-10.7	-11.21	-11.32	-10.96	-10.13	-8.9	-7.4	-5.76	-4.09	-2.47	-0.96	0.33	1.31	1.98	2.39	2.66	2.86	3	3	2.77	2.34	1.87	1.55	1.55	1.87	2.36	2.82	3.08	3.08	2.86	2.48	1.95	1.27	0.44	-0.51	-1.52	-2.54	-3.51	-4.41	-5.2	-5.92	-6.58	-7.26	-7.99	-8.79	-9.55	-10.09	-10.2	-9.74	-8.71	-7.21	-5.44	-3.56	-1.72	-0.07	1.26	2.15	2.56	2.59	2.43	2.34	2.44	2.75	3.14	3.43	3.51	3.38	3.11	2.87	2.74	2.77	2.91	3.06	3.08	2.86	2.35	1.63	0.79	-0.04	-0.79	-1.55	-2.42	-3.54	-4.96	-6.61	-8.3	-9.84	-11.06	-11.85	-12.17	-11.96	-11.22	-9.95	-8.25	-6.31	-4.33	-2.51	-0.94	0.41	1.56	2.54	3.3	3.79	3.99	3.95	3.76	3.52	3.31	3.14	2.97	2.77	2.54	2.28
-8.71	-7.21	-5.44	-3.56	-1.72	-0.07	1.26	2.15	2.56	2.59	2.43	2.34	2.44	2.75	3.14	3.43	3.51	3.38	3.11	2.87	2.74	2.77	2.91	3.06	3.08	2.86	2.35	1.63	0.79	-0.04	-0.79	-1.55	-2.42	-3.54	-4.96	-6.61	-8.3	-9.84	-11.06	-11.85	-12.17	-11.96	-11.22	-9.95	-8.25	-6.31	-4.33	-2.51	-0.94	0.41	1.56	2.54	3.3	3.79	3.99	3.95	3.76	3.52	3.31	3.14	2.97	2.77	2.54	2.28	2.01	1.78	1.58	1.38	1.12	0.69	0.01	-0.9	-1.98	-3.09	-4.11	-4.98	-5.75	-6.57	-7.58	-8.88	-10.45	-12.1	-13.57	-14.55	-14.84	-14.37	-13.24	-11.61	-9.65	-7.47	-5.09	-2.62	-0.21	1.89	3.47	4.46	5	5.35	5.69	6.02	6.14	5.76	4.78	3.34	1.85	0.77	0.38	0.7	1.4	2.09	2.41	2.21	1.59	0.76	-0.01	-0.56	-0.89	-1.15	-1.57	-2.4	-3.79	-5.71	-7.94	-10.18	-12.1	-13.45	-14.13	-14.14
2.01	1.78	1.58	1.38	1.12	0.69	0.01	-0.9	-1.98	-3.09	-4.11	-4.98	-5.75	-6.57	-7.58	-8.88	-10.45	-12.1	-13.57	-14.55	-14.84	-14.37	-13.24	-11.61	-9.65	-7.47	-5.09	-2.62	-0.21	1.89	3.47	4.46	5	5.35	5.69	6.02	6.14	5.76	4.78	3.34	1.85	0.77	0.38	0.7	1.4	2.09	2.41	2.21	1.59	0.76	-0.01	-0.56	-0.89	-1.15	-1.57	-2.4	-3.79	-5.71	-7.94	-10.18	-12.1	-13.45	-14.13	-14.14	-13.53	-12.36	-10.68	-8.52	-6	-3.28	-0.59	1.83	3.78	5.19	6.07	6.59	6.88	7.05	7.09	6.95	6.56	5.93	5.16	4.4	3.84	3.56	3.57	3.74	3.88	3.8	3.39	2.64	1.69	0.72	-0.14	-0.85	-1.5	-2.21	-3.11	-4.23	-5.56	-7.08	-8.76	-10.6	-12.47	-14.17	-15.39	-15.83	-15.31	-13.88	-11.73	-9.12	-6.31	-3.48	-0.76	1.77	3.96	5.69	6.87	7.54	7.77	7.67	7.32	6.73	5.93	4.98	4.02	3.2
-13.53	-12.36	-10.68	-8.52	-6	-3.28	-0.59	1.83	3.78	5.19	6.07	6.59	6.88	7.05	7.09	6.95	6.56	5.93	5.16	4.4	3.84	3.56	3.57	3.74	3.88	3.8	3.39	2.64	1.69	0.72	-0.14	-0.85	-1.5	-2.21	-3.11	-4.23	-5.56	-7.08	-8.76	-10.6	-12.47	-14.17	-15.39	-15.83	-15.31	-13.88	-11.73	-9.12	-6.31	-3.48	-0.76	1.77	3.96	5.69	6.87	7.54	7.77	7.67	7.32	6.73	5.93	4.98	4.02	3.2	2.66	2.41	2.41	2.51	2.57	2.49	2.21	1.77	1.26	0.78	0.41	0.14	-0.17	-0.71	-1.66	-3.13	-5.05	-7.22	-9.33	-11.06	-12.11	-12.3	-11.54	-9.88	-7.5	-4.67	-1.68	1.23	3.87	6.12	7.92	9.21	9.93	10.07	9.71	9.02	8.21	7.51	7.04	6.82	6.78	6.79	6.72	6.52	6.17	5.68	5.07	4.35	3.51	2.54	1.41	0.14	-1.24	-2.7	-4.23	-5.85	-7.6	-9.56	-11.72	-13.94	-15.97	-17.44	-18.03	-17.55
2.66	2.41	2.41	2.51	2.57	2.49	2.21	1.77	1.26	0.78	0.41	0.14	-0.17	-0.71	-1.66	-3.13	-5.05	-7.22	-9.33	-11.06	-12.11	-12.3	-11.54	-9.88	-7.5	-4.67	-1.68	1.23	3.87	6.12	7.92	9.21	9.93	10.07	9.71	9.02	8.21	7.51	7.04	6.82	6.78	6.79	6.72	6.52	6.17	5.68	5.07	4.35	3.51	2.54	1.41	0.14	-1.24	-2.7	-4.23	-5.85	-7.6	-9.56	-11.72	-13.94	-15.97	-17.44	-18.03	-17.55	-16.09	-13.91	-11.37	-8.8	-6.34	-3.98	-1.66	0.65	2.92	4.98	6.71	8.04	8.99	9.62	10	10.18	10.2	10.11	10	9.97	10.07	10.24	10.36	10.25	9.78	8.91	7.65	6.12	4.48	2.89	1.5	0.41	-0.43	-1.22	-2.25	-3.82	-6.04	-8.77	-11.6	-13.97	-15.39	-15.56	-14.48	-12.37	-9.59	-6.5	-3.35	-0.27	2.69	5.5	8.08	10.29	11.96	12.98	13.35	13.2	12.7	12.09	11.46	10.88	10.38	10.01	9.82	9.85
-16.09	-13.91	-11.37	-8.8	-6.34	-3.98	-1.66	0.65	2.92	4.98	6.71	8.04	8.99	9.62	10	10.18	10.2	10.11	10	9.97	10.07	10.24	10.36	10.25	9.78	8.91	7.65	6.12	4.48	2.89	1.5	0.41	-0.43	-1.22	-2.25	-3.82	-6.04	-8.77	-11.6	-13.97	-15.39	-15.56	-14.48	-12.37	-9.59	-6.5	-3.35	-0.27	2.69	5.5	8.08	10.29	11.96	12.98	13.35	13.2	12.7	12.09	11.46	10.88	10.38	10.01	9.82	9.85	10.07	10.31	10.37	10.05	9.31	8.23	6.96	5.7	4.58	3.59	2.64	1.59	0.33	-1.21	-2.98	-4.9	-6.87	-8.79	-10.64	-12.35	-13.8	-14.78	-15.05	-14.4	-12.78	-10.28	-7.18	-3.8	-0.44	2.7	5.53	8.05	10.29	12.22	13.76	14.77	15.13	14.84	14.07	13.14	12.39	12	11.96	12.04	11.99	11.67	11.13	10.51	9.93	9.4	8.78	7.93	6.77	5.38	3.94	2.61	1.48	0.5	-0.47	-1.61	-3.08	-4.96	-7.24	-9.77
10.07	10.31	10.37	10.05	9.31	8.23	6.96	5.7	4.58	3.59	2.64	1.59	0.33	-1.21	-2.98	-4.9	-6.87	-8.79	-10.64	-12.35	-13.8	-14.78	-15.05	-14.4	-12.78	-10.28	-7.18	-3.8	-0.44	2.7	5.53	8.05	10.29	12.22	13.76	14.77	15.13	14.84	14.07	13.14	12.39	12	11.96	12.04	11.99	11.67	11.13	10.51	9.93	9.4	8.78	7.93	6.77	5.38	3.94	2.61	1.48	0.5	-0.47	-1.61	-3.08	-4.96	-7.24	-9.77	-12.31	-14.55	-16.18	-16.95	-16.76	-15.64	-13.71	-11.14	-8.07	-4.69	-1.18	2.25	5.37	8.01	10.04	11.48	12.35	12.73	12.66	12.22	11.53	10.76	10.12	9.76	9.74	9.95	10.21	10.32	10.17	9.76	9.19	8.52	7.8	6.95	5.86	4.49	2.89	1.2	-0.44	-1.98	-3.51	-5.23	-7.33	-9.87	-12.6	-15.09	-16.79	-17.3	-16.5	-14.62	-12.03	-9.14	-6.18	-3.18	-0.07	3.2	6.51	9.56	11.97	13.49	14.04	13.81	13.17	12.46
-12.31	-14.55	-16.18	-16.95	-16.76	-15.64	-13.71	-11.14	-8.07	-4.69	-1.18	2.25	5.37	8.01	10.04	11.48	12.35	12.73	12.66	12.22	11.53	10.76	10.12	9.76	9.74	9.95	10.21	10.32	10.17	9.76	9.19	8.52	7.8	6.95	5.86	4.49	2.89	1.2	-0.44	-1.98	-3.51	-5.23	-7.33	-9.87	-12.6	-15.09	-16.79	-17.3	-16.5	-14.62	-12.03	-9.14	-6.18	-3.18	-0.07	3.2	6.51	9.56	11.97	13.49	14.04	13.81	13.17	12.46	11.9	11.53	11.26	10.97	10.67	10.46	10.46	10.69	10.98	11.01	10.46	9.2	7.35	5.21	3.11	1.23	-0.41	-1.94	-3.5	-5.18	-6.99	-8.95	-11.05	-13.27	-15.49	-17.45	-18.77	-19.09	-18.21	-16.19	-13.32	-10.02	-6.69	-3.55	-0.66	2.03	4.56	6.9	8.93	10.53	11.61	12.2	12.41	12.34	12.1	11.7	11.14	10.42	9.65	8.94	8.44	8.21	8.19	8.25	8.18	7.78	6.92	5.56	3.79	1.8	-0.17	-1.91	-3.34	-4.52
11.9	11.53	11.26	10.97	10.67	10.46	10.46	10.69	10.98	11.01	10.46	9.2	7.35	5.21	3.11	1.23	-0.41	-1.94	-3.5	-5.18	-6.99	-8.95	-11.05	-13.27	-15.49	-17.45	-18.77	-19.09	-18.21	-16.19	-13.32	-10.02	-6.69	-3.55	-0.66	2.03	4.56	6.9	8.93	10.53	11.61	12.2	12.41	12.34	12.1	11.7	11.14	10.42	9.65	8.94	8.44	8.21	8.19	8.25	8.18	7.78	6.92	5.56	3.79	1.8	-0.17	-1.91	-3.34	-4.52	-5.67	-7.04	-8.77	-10.84	-13.09	-15.32	-17.3	-18.87	-19.82	-19.93	-18.99	-16.85	-13.6	-9.54	-5.17	-0.94	2.8	5.88	8.34	10.25	11.68	12.69	13.3	13.54	13.51	13.29	12.98	12.6	12.16	11.64	11.05	10.43	9.84	9.33	8.93	8.6	8.24	7.73	6.92	5.71	4.15	2.34	0.46	-1.33	-3.03	-4.7	-6.46	-8.4	-10.46	-12.47	-14.17	-15.4	-15.98	-15.87	-14.97	-13.24	-10.66	-7.36	-3.64	0.07	3.36	5.94	7.75	8.85
-5.67	-7.04	-8.77	-10.84	-13.09	-15.32	-17.3	-18.87	-19.82	-19.93	-18.99	-16.85	-13.6	-9.54	-5.17	-0.94	2.8	5.88	8.34	10.25	11.68	12.69	13.3	13.54	13.51	13.29	12.98	12.6	12.16	11.64	11.05	10.43	9.84	9.33	8.93	8.6	8.24	7.73	6.92	5.71	4.15	2.34	0.46	-1.33	-3.03	-4.7	-6.46	-8.4	-10.46	-12.47	-14.17	-15.4	-15.98	-15.87	-14.97	-13.24	-10.66	-7.36	-3.64	0.07	3.36	5.94	7.75	8.85	9.41	9.59	9.45	9.05	8.43	7.7	6.99	6.44	6.1	5.96	5.9	5.78	5.49	5.01	4.39	3.7	2.97	2.19	1.28	0.24	-0.91	-2.06	-3.14	-4.19	-5.31	-6.69	-8.45	-10.54	-12.71	-14.52	-15.51	-15.33	-13.88	-11.3	-7.93	-4.24	-0.71	2.32	4.7	6.41	7.54	8.21	8.5	8.45	8.14	7.62	7.05	6.58	6.33	6.31	6.41	6.47	6.29	5.81	5.04	4.11	3.13	2.13	1.06	-0.15	-1.48	-2.82	-3.99	-4.91
9.41	9.59	9.45	9.05	8.43	7.7	6.99	6.44	6.1	5.96	5.9	5.78	5.49	5.01	4.39	3.7	2.97	2.19	1.28	0.24	-0.91	-2.06	-3.14	-4.19	-5.31	-6.69	-8.45	-10.54	-12.71	-14.52	-15.51	-15.33	-13.88	-11.3	-7.93	-4.24	-0.71	2.32	4.7	6.41	7.54	8.21	8.5	8.45	8.14	7.62	7.05	6.58	6.33	6.31	6.41	6.47	6.29	5.81	5.04	4.11	3.13	2.13	1.06	-0.15	-1.48	-2.82	-3.99	-4.91	-5.62	-6.36	-7.46	-9.16	-11.5	-14.29	-17.18	-19.76	-21.67	-22.62	-22.49	-21.27	-19.08	-16.13	-12.69	-8.99	-5.26	-1.68	1.6	4.4	6.65	8.32	9.47	10.2	10.59	10.67	10.46	10	9.37	8.71	8.16	7.84	7.74	7.83	8.01	8.16	8.1	7.68	6.82	5.53	3.92	2.17	0.41	-1.32	-3.11	-5.08	-7.35	-9.96	-12.81	-15.66	-18.15	-19.88	-20.48	-19.7	-17.58	-14.35	-10.47	-6.39	-2.51	0.93	3.86	6.26	8.2	9.69
-5.62	-6.36	-7.46	-9.16	-11.5	-14.29	-17.18	-19.76	-21.67	-22.62	-22.49	-21.27	-19.08	-16.13	-12.69	-8.99	-5.26	-1.68	1.6	4.4	6.65	8.32	9.47	10.2	10.59	10.67	10.46	10	9.37	8.71	8.16	7.84	7.74	7.83	8.01	8.16	8.1	7.68	6.82	5.53	3.92	2.17	0.41	-1.32	-3.11	-5.08	-7.35	-9.96	-12.81	-15.66	-18.15	-19.88	-20.48	-19.7	-17.58	-14.35	-10.47	-6.39	-2.51	0.93	3.86	6.26	8.2	9.69	10.72	11.31	11.48	11.29	10.82	10.19	9.51	8.88	8.35	7.93	7.59	7.31	7.08	6.93	6.83	6.68	6.31	5.54	4.27	2.54	0.53	-1.53	-3.48	-5.32	-7.18	-9.25	-11.66	-14.4	-17.26	-19.91	-21.97	-23.13	-23.16	-22.01	-19.79	-16.75	-13.2	-9.44	-5.7	-2.08	1.35	4.5	7.23	9.37	10.77	11.4	11.38	10.93	10.29	9.62	8.99	8.4	7.85	7.42	7.21	7.25	7.5	7.79	7.9	7.67	7.03	6.03	4.79	3.41
10.72	11.31	11.48	11.29	10.82	10.19	9.51	8.88	8.35	7.93	7.59	7.31	7.08	6.93	6.83	6.68	6.31	5.54	4.27	2.54	0.53	-1.53	-3.48	-5.32	-7.18	-9.25	-11.66	-14.4	-17.26	-19.91	-21.97	-23.13	-23.16	-22.01	-19.79	-16.75	-13.2	-9.44	-5.7	-2.08	1.35	4.5	7.23	9.37	10.77	11.4	11.38	10.93	10.29	9.62	8.99	8.4	7.85	7.42	7.21	7.25	7.5	7.79	7.9	7.67	7.03	6.03	4.79	3.41	1.95	0.4	-1.26	-3.06	-5.01	-7.14	-9.44	-11.9	-14.43	-16.81	-18.69	-19.67	-19.37	-17.62	-14.57	-10.61	-6.28	-2.09	1.62	4.72	7.19	9.06	10.36	11.1	11.33	11.17	10.75	10.24	9.72	9.23	8.82	8.52	8.37	8.35	8.34	8.14	7.58	6.57	5.19	3.63	2.11	0.73	-0.59	-2.01	-3.72	-5.85	-8.38	-11.23	-14.29	-17.43	-20.47	-23.08	-24.81	-25.19	-23.95	-21.16	-17.26	-12.91	-8.71	-5.03	-1.91	0.83	3.43	5.96
1.95	0.4	-1.26	-3.06	-5.01	-7.14	-9.44	-11.9	-14.43	-16.81	-18.69	-19.67	-19.37	-17.62	-14.57	-10.61	-6.28	-2.09	1.62	4.72	7.19	9.06	10.36	11.1	11.33	11.17	10.75	10.24	9.72	9.23	8.82	8.52	8.37	8.35	8.34	8.14	7.58	6.57	5.19	3.63	2.11	0.73	-0.59	-2.01	-3.72	-5.85	-8.38	-11.23	-14.29	-17.43	-20.47	-23.08	-24.81	-25.19	-23.95	-21.16	-17.26	-12.91	-8.71	-5.03	-1.91	0.83	3.43	5.96	8.32	10.28	11.61	12.26	12.34	12.09	11.8	11.61	11.53	11.44	11.19	10.67	9.87	8.87	7.78	6.65	5.43	4.04	2.37	0.46	-1.61	-3.71	-5.73	-7.72	-9.87	-12.38	-15.34	-18.62	-21.8	-24.32	-25.63	-25.38	-23.51	-20.28	-16.19	-11.73	-7.3	-3.1	0.82	4.47	7.8	10.67	12.85	14.15	14.53	14.15	13.28	12.24	11.24	10.35	9.56	8.86	8.3	7.97	7.92	8.09	8.29	8.26	7.85	7.03	5.89	4.57	3.09	1.35
8.32	10.28	11.61	12.26	12.34	12.09	11.8	11.61	11.53	11.44	11.19	10.67	9.87	8.87	7.78	6.65	5.43	4.04	2.37	0.46	-1.61	-3.71	-5.73	-7.72	-9.87	-12.38	-15.34	-18.62	-21.8	-24.32	-25.63	-25.38	-23.51	-20.28	-16.19	-11.73	-7.3	-3.1	0.82	4.47	7.8	10.67	12.85	14.15	14.53	14.15	13.28	12.24	11.24	10.35	9.56	8.86	8.3	7.97	7.92	8.09	8.29	8.26	7.85	7.03	5.89	4.57	3.09	1.35	-0.75	-3.3	-6.26	-9.47	-12.72	-15.83	-18.62	-20.9	-22.4	-22.83	-21.94	-19.67	-16.23	-12	-7.46	-3.01	1.08	4.66	7.63	9.91	11.4	12.13	12.17	11.71	11.02	10.36	9.89	9.71	9.81	10.14	10.57	11	11.32	11.43	11.3	10.88	10.11	8.93	7.28	5.15	2.61	-0.15	-2.95	-5.63	-8.16	-10.64	-13.2	-15.88	-18.48	-20.59	-21.71	-21.47	-19.75	-16.79	-13.04	-8.96	-4.91	-1.01	2.71	6.22	9.42	12.12	14.11	15.26
-0.75	-3.3	-6.26	-9.47	-12.72	-15.83	-18.62	-20.9	-22.4	-22.83	-21.94	-19.67	-16.23	-12	-7.46	-3.01	1.08	4.66	7.63	9.91	11.4	12.13	12.17	11.71	11.02	10.36	9.89	9.71	9.81	10.14	10.57	11	11.32	11.43	11.3	10.88	10.11	8.93	7.28	5.15	2.61	-0.15	-2.95	-5.63	-8.16	-10.64	-13.2	-15.88	-18.48	-20.59	-21.71	-21.47	-19.75	-16.79	-13.04	-8.96	-4.91	-1.01	2.71	6.22	9.42	12.12	14.11	15.26	15.53	14.97	13.73	12.05	10.21	8.57	7.43	6.94	7.07	7.6	8.21	8.61	8.62	8.21	7.47	6.47	5.29	3.91	2.32	0.45	-1.72	-4.2	-6.99	-10.02	-13.19	-16.29	-19.02	-21.01	-21.89	-21.44	-19.61	-16.58	-12.65	-8.19	-3.51	1.13	5.54	9.51	12.84	15.35	16.96	17.7	17.74	17.31	16.64	15.91	15.24	14.67	14.22	13.93	13.8	13.81	13.84	13.71	13.23	12.23	10.72	8.81	6.73	4.72	2.94	1.44	0.12	-1.22
15.53	14.97	13.73	12.05	10.21	8.57	7.43	6.94	7.07	7.6	8.21	8.61	8.62	8.21	7.47	6.47	5.29	3.91	2.32	0.45	-1.72	-4.2	-6.99	-10.02	-13.19	-16.29	-19.02	-21.01	-21.89	-21.44	-19.61	-16.58	-12.65	-8.19	-3.51	1.13	5.54	9.51	12.84	15.35	16.96	17.7	17.74	17.31	16.64	15.91	15.24	14.67	14.22	13.93	13.8	13.81	13.84	13.71	13.23	12.23	10.72	8.81	6.73	4.72	2.94	1.44	0.12	-1.22	-2.79	-4.83	-7.46	-10.63	-14.08	-17.32	-19.79	-20.95	-20.47	-18.33	-14.85	-10.62	-6.29	-2.39	0.82	3.37	5.49	7.41	9.3	11.11	12.72	13.96	14.78	15.2	15.36	15.38	15.32	15.11	14.7	14.05	13.26	12.47	11.87	11.49	11.25	10.88	10.12	8.83	7.03	4.93	2.82	0.89	-0.78	-2.25	-3.67	-5.17	-6.89	-8.9	-11.26	-13.94	-16.73	-19.27	-21.05	-21.6	-20.62	-18.13	-14.46	-10.09	-5.51	-1.04	3.13	6.9	10.2	12.92
-2.79	-4.83	-7.46	-10.63	-14.08	-17.32	-19.79	-20.95	-20.47	-18.33	-14.85	-10.62	-6.29	-2.39	0.82	3.37	5.49	7.41	9.3	11.11	12.72	13.96	14.78	15.2	15.36	15.38	15.32	15.11	14.7	14.05	13.26	12.47	11.87	11.49	11.25	10.88	10.12	8.83	7.03	4.93	2.82	0.89	-0.78	-2.25	-3.67	-5.17	-6.89	-8.9	-11.26	-13.94	-16.73	-19.27	-21.05	-21.6	-20.62	-18.13	-14.46	-10.09	-5.51	-1.04	3.13	6.9	10.2	12.92	14.95	16.28	17	17.29	17.32	17.18	16.88	16.36	15.63	14.76	13.9	13.2	12.72	12.44	12.23	11.92	11.42	10.64	9.6	8.31	6.78	5.08	3.3	1.57	0.01	-1.36	-2.6	-3.9	-5.49	-7.46	-9.74	-12.02	-13.89	-14.91	-14.78	-13.44	-11.05	-7.91	-4.34	-0.65	2.97	6.32	9.24	11.55	13.13	13.91	13.99	13.52	12.7	11.7	10.67	9.72	8.96	8.51	8.39	8.57	8.84	8.96	8.73	8.04	6.97	5.66	4.31	3.09
14.95	16.28	17	17.29	17.32	17.18	16.88	16.36	15.63	14.76	13.9	13.2	12.72	12.44	12.23	11.92	11.42	10.64	9.6	8.31	6.78	5.08	3.3	1.57	0.01	-1.36	-2.6	-3.9	-5.49	-7.46	-9.74	-12.02	-13.89	-14.91	-14.78	-13.44	-11.05	-7.91	-4.34	-0.65	2.97	6.32	9.24	11.55	13.13	13.91	13.99	13.52	12.7	11.7	10.67	9.72	8.96	8.51	8.39	8.57	8.84	8.96	8.73	8.04	6.97	5.66	4.31	3.09	2.05	1.17	0.32	-0.65	-1.94	-3.69	-5.94	-8.59	-11.43	-14.18	-16.49	-18.08	-18.73	-18.32	-16.87	-14.51	-11.51	-8.17	-4.79	-1.61	1.23	3.63	5.57	7.07	8.17	8.91	9.32	9.35	8.96	8.15	7.02	5.77	4.66	3.9	3.57	3.68	4.04	4.48	4.81	4.85	4.49	3.7	2.56	1.28	0.12	-0.69	-1.08	-1.22	-1.38	-1.91	-3.09	-4.99	-7.47	-10.15	-12.52	-14.1	-14.49	-13.58	-11.53	-8.74	-5.71	-2.87	-0.46	1.51
2.05	1.17	0.32	-0.65	-1.94	-3.69	-5.94	-8.59	-11.43	-14.18	-16.49	-18.08	-18.73	-18.32	-16.87	-14.51	-11.51	-8.17	-4.79	-1.61	1.23	3.63	5.57	7.07	8.17	8.91	9.32	9.35	8.96	8.15	7.02	5.77	4.66	3.9	3.57	3.68	4.04	4.48	4.81	4.85	4.49	3.7	2.56	1.28	0.12	-0.69	-1.08	-1.22	-1.38	-1.91	-3.09	-4.99	-7.47	-10.15	-12.52	-14.1	-14.49	-13.58	-11.53	-8.74	-5.71	-2.87	-0.46	1.51	3.21	4.78	6.27	7.61	8.61	9.12	9.11	8.73	8.2	7.73	7.44	7.29	7.16	6.99	6.8	6.66	6.63	6.65	6.54	6.06	5.01	3.39	1.34	-0.88	-2.98	-4.8	-6.3	-7.54	-8.69	-9.88	-11.22	-12.74	-14.32	-15.75	-16.74	-16.96	-16.2	-14.47	-11.96	-9.07	-6.22	-3.67	-1.45	0.61	2.71	4.93	7.12	8.98	10.18	10.55	10.15	9.23	8.11	7.07	6.31	5.86	5.71	5.76	5.89	6	6.06	6.06	5.98	5.78
3.21	4.78	6.27	7.61	8.61	9.12	9.11	8.73	8.2	7.73	7.44	7.29	7.16	6.99	6.8	6.66	6.63	6.65	6.54	6.06	5.01	3.39	1.34	-0.88	-2.98	-4.8	-6.3	-7.54	-8.69	-9.88	-11.22	-12.74	-14.32	-15.75	-16.74	-16.96	-16.2	-14.47	-11.96	-9.07	-6.22	-3.67	-1.45	0.61	2.71	4.93	7.12	8.98	10.18	10.55	10.15	9.23	8.11	7.07	6.31	5.86	5.71	5.76	5.89	6	6.06	6.06	5.98	5.78	5.33	4.47	3.15	1.41	-0.55	-2.49	-4.2	-5.63	-6.87	-8.13	-9.57	-11.27	-13.21	-15.24	-17.13	-18.6	-19.41	-19.37	-18.43	-16.68	-14.3	-11.51	-8.49	-5.41	-2.36	0.54	3.19	5.46	7.22	8.37	8.85	8.69	8	7.01	5.99	5.19	4.71	4.52	4.48	4.44	4.35	4.25	4.22	4.21	4.1	3.68	2.92	1.99	1.28	1.17	1.74	2.72	3.49	3.46	2.34	0.33	-1.95	-3.81	-4.8	-4.89	-4.36	-3.54	-2.71	-1.94
5.33	4.47	3.15	1.41	-0.55	-2.49	-4.2	-5.63	-6.87	-8.13	-9.57	-11.27	-13.21	-15.24	-17.13	-18.6	-19.41	-19.37	-18.43	-16.68	-14.3	-11.51	-8.49	-5.41	-2.36	0.54	3.19	5.46	7.22	8.37	8.85	8.69	8	7.01	5.99	5.19	4.71	4.52	4.48	4.44	4.35	4.25	4.22	4.21	4.1	3.68	2.92	1.99	1.28	1.17	1.74	2.72	3.49	3.46	2.34	0.33	-1.95	-3.81	-4.8	-4.89	-4.36	-3.54	-2.71	-1.94	-1.32	-1.12	-1.78	-3.66	-6.78	-10.64	-14.44	-17.49	-19.56	-21	-22.42	-24.21	-26.24	-27.91	-28.54	-27.75	-25.75	-23.08	-20.35	-17.82	-15.41	-12.82	-9.96	-7.03	-4.53	-2.97	-2.62	-3.4	-4.98	-6.87	-8.74	-10.37	-11.71	-12.79	-13.68	-14.49	-15.35	-16.36	-17.47	-18.43	-18.78	-18.03	-15.84	-12.27	-7.8	-3.16	0.84	3.68	5.17	5.56	5.33	5	4.98	5.48	6.53	8.01	9.71	11.38	12.79	13.74	14.07	13.71	12.62	10.91
-1.32	-1.12	-1.78	-3.66	-6.78	-10.64	-14.44	-17.49	-19.56	-21	-22.42	-24.21	-26.24	-27.91	-28.54	-27.75	-25.75	-23.08	-20.35	-17.82	-15.41	-12.82	-9.96	-7.03	-4.53	-2.97	-2.62	-3.4	-4.98	-6.87	-8.74	-10.37	-11.71	-12.79	-13.68	-14.49	-15.35	-16.36	-17.47	-18.43	-18.78	-18.03	-15.84	-12.27	-7.8	-3.16	0.84	3.68	5.17	5.56	5.33	5	4.98	5.48	6.53	8.01	9.71	11.38	12.79	13.74	14.07	13.71	12.62	10.91	8.7	6.22	3.68	1.25	-0.97	-2.97	-4.84	-6.65	-8.44	-10.11	-11.48	-12.3	-12.35	-11.56	-10.03	-7.97	-5.69	-3.42	-1.26	0.82	2.87	4.93	6.93	8.67	9.96	10.64	10.64	9.99	8.79	7.22	5.48	3.83	2.43	1.41	0.74	0.37	0.22	0.28	0.56	1.08	1.75	2.37	2.7	2.53	1.74	0.35	-1.49	-3.56	-5.57	-7.21	-8.2	-8.36	-7.64	-6.13	-3.98	-1.33	1.73	5.15	8.81	12.49	15.89	18.7	20.71	21.87
8.7	6.22	3.68	1.25	-0.97	-2.97	-4.84	-6.65	-8.44	-10.11	-11.48	-12.3	-12.35	-11.56	-10.03	-7.97	-5.69	-3.42	-1.26	0.82	2.87	4.93	6.93	8.67	9.96	10.64	10.64	9.99	8.79	7.22	5.48	3.83	2.43	1.41	0.74	0.37	0.22	0.28	0.56	1.08	1.75	2.37	2.7	2.53	1.74	0.35	-1.49	-3.56	-5.57	-7.21	-8.2	-8.36	-7.64	-6.13	-3.98	-1.33	1.73	5.15	8.81	12.49	15.89	18.7	20.71	21.87	22.26	22.01	21.21	19.91	18.12	15.91	13.33	10.5	7.55	4.61	1.92	-0.13	-1.07	-0.5	1.77	5.49	9.94	14.09	16.85	17.31	15.06	10.22	3.39	-4.51	-12.47	-19.58	-25.16	-28.84	-30.56	-30.49	-28.96	-26.4	-23.15	-19.56	-15.92	-12.55	-9.82	-7.99	-7.18	-7.21	-7.6	-7.77	-7.28	-6.01	-4.22	-2.39	-0.93	0.01	0.56	0.96	1.33	1.53	1.21	0.06	-1.94	-4.43	-6.78	-8.37	-8.92	-8.57	-7.83	-7.38	-7.72	-9.05
22.26	22.01	21.21	19.91	18.12	15.91	13.33	10.5	7.55	4.61	1.92	-0.13	-1.07	-0.5	1.77	5.49	9.94	14.09	16.85	17.31	15.06	10.22	3.39	-4.51	-12.47	-19.58	-25.16	-28.84	-30.56	-30.49	-28.96	-26.4	-23.15	-19.56	-15.92	-12.55	-9.82	-7.99	-7.18	-7.21	-7.6	-7.77	-7.28	-6.01	-4.22	-2.39	-0.93	0.01	0.56	0.96	1.33	1.53	1.21	0.06	-1.94	-4.43	-6.78	-8.37	-8.92	-8.57	-7.83	-7.38	-7.72	-9.05	-11.11	-13.37	-15.21	-16.1	-15.78	-14.32	-12	-9.22	-6.3	-3.43	-0.66	2.03	4.59	6.83	8.5	9.38	9.44	8.88	8.04	7.27	6.77	6.59	6.61	6.68	6.74	6.71	6.58	6.29	5.79	5.03	4.05	2.95	1.81	0.7	-0.37	-1.45	-2.59	-3.84	-5.25	-6.86	-8.61	-10.35	-11.77	-12.49	-12.19	-10.73	-8.25	-5.05	-1.55	1.86	4.92	7.45	9.37	10.63	11.26	11.37	11.13	10.7	10.19	9.63	8.97	8.21	7.44	6.84
-11.11	-13.37	-15.21	-16.1	-15.78	-14.32	-12	-9.22	-6.3	-3.43	-0.66	2.03	4.59	6.83	8.5	9.38	9.44	8.88	8.04	7.27	6.77	6.59	6.61	6.68	6.74	6.71	6.58	6.29	5.79	5.03	4.05	2.95	1.81	0.7	-0.37	-1.45	-2.59	-3.84	-5.25	-6.86	-8.61	-10.35	-11.77	-12.49	-12.19	-10.73	-8.25	-5.05	-1.55	1.86	4.92	7.45	9.37	10.63	11.26	11.37	11.13	10.7	10.19	9.63	8.97	8.21	7.44	6.84	6.62	6.87	7.48	8.14	8.44	8.08	6.94	5.18	3.16	1.29	-0.1	-0.92	-1.34	-1.78	-2.83	-5.16	-9.28	-15.28	-22.73	-30.46	-36.82	-40.01	-38.55	-31.74	-19.91	-4.35	13.06	30.35	45.85	58.5	67.81	73.72	76.45	76.3	73.72	69.26	63.66	57.73	52.16	47.34	43.28	39.76	36.42	33.06	29.64	26.24	22.95	19.73	16.44	12.91	9.03	4.82	0.39	-4.07	-8.37	-12.42	-16.26	-20.03	-23.94	-28.06	-32.2	-35.88	-38.38	-39.11
6.62	6.87	7.48	8.14	8.44	8.08	6.94	5.18	3.16	1.29	-0.1	-0.92	-1.34	-1.78	-2.83	-5.16	-9.28	-15.28	-22.73	-30.46	-36.82	-40.01	-38.55	-31.74	-19.91	-4.35	13.06	30.35	45.85	58.5	67.81	73.72	76.45	76.3	73.72	69.26	63.66	57.73	52.16	47.34	43.28	39.76	36.42	33.06	29.64	26.24	22.95	19.73	16.44	12.91	9.03	4.82	0.39	-4.07	-8.37	-12.42	-16.26	-20.03	-23.94	-28.06	-32.2	-35.88	-38.38	-39.11	-37.78	-34.63	-30.27	-25.49	-20.96	-17.09	-13.97	-11.51	-9.51	-7.81	-6.24	-4.71	-3.19	-1.69	-0.27	1.04	2.23	3.36	4.55	5.88	7.36	8.92	10.42	11.72	12.72	13.38	13.72	13.78	13.6	13.18	12.55	11.75	10.85	9.92	8.97	7.97	6.8	5.34	3.58	1.6	-0.34	-1.88	-2.7	-2.64	-1.76	-0.34	1.27	2.76	4	5.05	6.02	7.01	7.94	8.63	8.92	8.72	8.16	7.45	6.84	6.45	6.27	6.16	6.01	5.79
-37.78	-34.63	-30.27	-25.49	-20.96	-17.09	-13.97	-11.51	-9.51	-7.81	-6.24	-4.71	-3.19	-1.69	-0.27	1.04	2.23	3.36	4.55	5.88	7.36	8.92	10.42	11.72	12.72	13.38	13.72	13.78	13.6	13.18	12.55	11.75	10.85	9.92	8.97	7.97	6.8	5.34	3.58	1.6	-0.34	-1.88	-2.7	-2.64	-1.76	-0.34	1.27	2.76	4	5.05	6.02	7.01	7.94	8.63	8.92	8.72	8.16	7.45	6.84	6.45	6.27	6.16	6.01	5.79	5.57	5.48	5.57	5.76	5.8	5.44	4.52	3.06	1.29	-0.52	-2.17	-3.63	-5.01	-6.43	-7.94	-9.45	-10.71	-11.48	-11.58	-10.96	-9.74	-8.14	-6.39	-4.73	-3.28	-2.07	-1.08	-0.25	0.44	0.95	1.2	1.15	0.82	0.33	-0.15	-0.44	-0.49	-0.3	0.02	0.36	0.63	0.79	0.81	0.72	0.55	0.38	0.3	0.35	0.53	0.72	0.78	0.56	0.03	-0.72	-1.46	-1.94	-1.95	-1.43	-0.45	0.78	2.06	3.22	4.23	5.11
5.57	5.48	5.57	5.76	5.8	5.44	4.52	3.06	1.29	-0.52	-2.17	-3.63	-5.01	-6.43	-7.94	-9.45	-10.71	-11.48	-11.58	-10.96	-9.74	-8.14	-6.39	-4.73	-3.28	-2.07	-1.08	-0.25	0.44	0.95	1.2	1.15	0.82	0.33	-0.15	-0.44	-0.49	-0.3	0.02	0.36	0.63	0.79	0.81	0.72	0.55	0.38	0.3	0.35	0.53	0.72	0.78	0.56	0.03	-0.72	-1.46	-1.94	-1.95	-1.43	-0.45	0.78	2.06	3.22	4.23	5.11	5.93	6.7	7.35	7.79	7.92	7.78	7.47	7.12	6.84	6.61	6.31	5.86	5.22	4.47	3.75	3.16	2.71	2.27	1.66	0.77	-0.38	-1.65	-2.81	-3.76	-4.56	-5.43	-6.62	-8.21	-10.07	-11.8	-12.95	-13.16	-12.33	-10.65	-8.45	-6.11	-3.89	-1.9	-0.18	1.23	2.25	2.81	2.88	2.54	1.96	1.29	0.66	0.14	-0.25	-0.48	-0.55	-0.52	-0.47	-0.57	-0.94	-1.61	-2.46	-3.32	-4.06	-4.61	-5.07	-5.61	-6.39	-7.54
5.93	6.7	7.35	7.79	7.92	7.78	7.47	7.12	6.84	6.61	6.31	5.86	5.22	4.47	3.75	3.16	2.71	2.27	1.66	0.77	-0.38	-1.65	-2.81	-3.76	-4.56	-5.43	-6.62	-8.21	-10.07	-11.8	-12.95	-13.16	-12.33	-10.65	-8.45	-6.11	-3.89	-1.9	-0.18	1.23	2.25	2.81	2.88	2.54	1.96	1.29	0.66	0.14	-0.25	-0.48	-0.55	-0.52	-0.47	-0.57	-0.94	-1.61	-2.46	-3.32	-4.06	-4.61	-5.07	-5.61	-6.39	-7.54	-9.01	-10.65	-12.24	-13.48	-14.12	-14.06	-13.31	-12.04	-10.41	-8.56	-6.59	-4.58	-2.61	-0.78	0.83	2.18	3.24	3.98	4.37	4.4	4.05	3.45	2.71	1.99	1.34	0.75	0.17	-0.43	-1.03	-1.56	-1.95	-2.22	-2.47	-2.76	-3.18	-3.73	-4.4	-5.2	-6.11	-7.07	-7.99	-8.73	-9.18	-9.28	-9.03	-8.47	-7.67	-6.69	-5.62	-4.5	-3.39	-2.32	-1.31	-0.33	0.59	1.41	2	2.23	2.03	1.43	0.61	-0.17	-0.64	-0.67
-9.01	-10.65	-12.24	-13.48	-14.12	-14.06	-13.31	-12.04	-10.41	-8.56	-6.59	-4.58	-2.61	-0.78	0.83	2.18	3.24	3.98	4.37	4.4	4.05	3.45	2.71	1.99	1.34	0.75	0.17	-0.43	-1.03	-1.56	-1.95	-2.22	-2.47	-2.76	-3.18	-3.73	-4.4	-5.2	-6.11	-7.07	-7.99	-8.73	-9.18	-9.28	-9.03	-8.47	-7.67	-6.69	-5.62	-4.5	-3.39	-2.32	-1.31	-0.33	0.59	1.41	2	2.23	2.03	1.43	0.61	-0.17	-0.64	-0.67	-0.3	0.25	0.69	0.82	0.53	-0.07	-0.84	-1.61	-2.28	-2.88	-3.47	-4.09	-4.78	-5.52	-6.28	-7.06	-7.85	-8.6	-9.26	-9.71	-9.85	-9.57	-8.87	-7.77	-6.38	-4.82	-3.21	-1.64	-0.22	0.94	1.71	1.95	1.55	0.51	-1.08	-2.98	-4.89	-6.46	-7.4	-7.55	-6.88	-5.55	-3.85	-2.14	-0.79	-0.02	0.14	-0.22	-0.9	-1.7	-2.51	-3.35	-4.26	-5.31	-6.48	-7.64	-8.6	-9.17	-9.23	-8.76	-7.85	-6.65	-5.35	-4.14
-0.3	0.25	0.69	0.82	0.53	-0.07	-0.84	-1.61	-2.28	-2.88	-3.47	-4.09	-4.78	-5.52	-6.28	-7.06	-7.85	-8.6	-9.26	-9.71	-9.85	-9.57	-8.87	-7.77	-6.38	-4.82	-3.21	-1.64	-0.22	0.94	1.71	1.95	1.55	0.51	-1.08	-2.98	-4.89	-6.46	-7.4	-7.55	-6.88	-5.55	-3.85	-2.14	-0.79	-0.02	0.14	-0.22	-0.9	-1.7	-2.51	-3.35	-4.26	-5.31	-6.48	-7.64	-8.6	-9.17	-9.23	-8.76	-7.85	-6.65	-5.35	-4.14	-3.17	-2.55	-2.28	-2.24	-2.25	-2.12	-1.78	-1.31	-0.89	-0.72	-0.82	-1	-0.94	-0.26	1.17	3.18	5.34	7.14	8.16	8.29	7.71	6.78	5.84	5.09	4.55	4.07	3.45	2.55	1.34	-0.12	-1.72	-3.4	-5.16	-7.03	-8.97	-10.84	-12.33	-13.12	-12.95	-11.79	-9.83	-7.5	-5.22	-3.29	-1.79	-0.67	0.18	0.8	1.2	1.36	1.36	1.38	1.6	2.11	2.81	3.38	3.5	2.98	1.94	0.75	-0.17	-0.54	-0.42	-0.16
-3.17	-2.55	-2.28	-2.24	-2.25	-2.12	-1.78	-1.31	-0.89	-0.72	-0.82	-1	-0.94	-0.26	1.17	3.18	5.34	7.14	8.16	8.29	7.71	6.78	5.84	5.09	4.55	4.07	3.45	2.55	1.34	-0.12	-1.72	-3.4	-5.16	-7.03	-8.97	-10.84	-12.33	-13.12	-12.95	-11.79	-9.83	-7.5	-5.22	-3.29	-1.79	-0.67	0.18	0.8	1.2	1.36	1.36	1.38	1.6	2.11	2.81	3.38	3.5	2.98	1.94	0.75	-0.17	-0.54	-0.42	-0.16	-0.26	-1.01	-2.43	-4.12	-5.53	-6.15	-5.83	-4.87	-3.84	-3.35	-3.74	-4.92	-6.45	-7.73	-8.31	-8.04	-7.1	-5.86	-4.67	-3.64	-2.67	-1.52	0.01	1.89	3.9	5.65	6.83	7.32	7.22	6.74	6.02	5.09	4.03	3.1	2.75	3.4	5.19	7.78	10.39	12.17	12.58	11.6	9.71	7.59	5.76	4.46	3.63	3.11	2.75	2.43	2.09	1.77	1.64	2.08	3.57	6.49	10.95	16.61	22.72	28.3	32.45	34.68	35.19	34.77
-0.26	-1.01	-2.43	-4.12	-5.53	-6.15	-5.83	-4.87	-3.84	-3.35	-3.74	-4.92	-6.45	-7.73	-8.31	-8.04	-7.1	-5.86	-4.67	-3.64	-2.67	-1.52	0.01	1.89	3.9	5.65	6.83	7.32	7.22	6.74	6.02	5.09	4.03	3.1	2.75	3.4	5.19	7.78	10.39	12.17	12.58	11.6	9.71	7.59	5.76	4.46	3.63	3.11	2.75	2.43	2.09	1.77	1.64	2.08	3.57	6.49	10.95	16.61	22.72	28.3	32.45	34.68	35.19	34.77	34.63	35.91	39.16	43.95	48.95	52.13	51.37	44.92	32.01	13.15	-9.65	-33.01	-52.89	-65.68	-69.54	-65.13	-55.42	-44.48	-35.82	-31.1	-29.93	-30.79	-32.33	-34.23	-37.11	-41.76	-48.09	-54.81	-59.88	-61.55	-59.15	-53.47	-46.38	-39.94	-35.63	-33.91	-34.16	-35.1	-35.23	-33.45	-29.32	-23.14	-15.64	-7.74	-0.36	5.6	9.18	9.51	6.06	-0.89	-10.15	-19.8	-27.79	-32.64	-33.74	-31.34	-26.23	-19.27	-11.32	-3.22	4.11	9.7	12.9	13.61
34.63	35.91	39.16	43.95	48.95	52.13	51.37	44.92	32.01	13.15	-9.65	-33.01	-52.89	-65.68	-69.54	-65.13	-55.42	-44.48	-35.82	-31.1	-29.93	-30.79	-32.33	-34.23	-37.11	-41.76	-48.09	-54.81	-59.88	-61.55	-59.15	-53.47	-46.38	-39.94	-35.63	-33.91	-34.16	-35.1	-35.23	-33.45	-29.32	-23.14	-15.64	-7.74	-0.36	5.6	9.18	9.51	6.06	-0.89	-10.15	-19.8	-27.79	-32.64	-33.74	-31.34	-26.23	-19.27	-11.32	-3.22	4.11	9.7	12.9	13.61	12.41	10.35	8.5	7.59	7.85	9.04	10.68	12.39	13.89	15.15	16.24	17.17	17.92	18.32	18.23	17.58	16.53	15.32	14.23	13.43	12.86	12.35	11.72	10.88	9.93	9.06	8.44	8.15	8.14	8.28	8.4	8.38	8.08	7.46	6.48	5.19	3.63	1.86	-0.12	-2.36	-4.85	-7.46	-9.87	-11.66	-12.46	-12.11	-10.79	-8.86	-6.76	-4.79	-2.99	-1.22	0.68	2.76	4.83	6.6	7.77	8.24	8.13	7.72	7.35	7.28	7.56	8.14
12.41	10.35	8.5	7.59	7.85	9.04	10.68	12.39	13.89	15.15	16.24	17.17	17.92	18.32	18.23	17.58	16.53	15.32	14.23	13.43	12.86	12.35	11.72	10.88	9.93	9.06	8.44	8.15	8.14	8.28	8.4	8.38	8.08	7.46	6.48	5.19	3.63	1.86	-0.12	-2.36	-4.85	-7.46	-9.87	-11.66	-12.46	-12.11	-10.79	-8.86	-6.76	-4.79	-2.99	-1.22	0.68	2.76	4.83	6.6	7.77	8.24	8.13	7.72	7.35	7.28	7.56	8.14	8.81	9.34	9.54	9.29	8.59	7.58	6.49	5.51	4.78	4.24	3.75	3.09	2.07	0.62	-1.23	-3.38	-5.61	-7.63	-9.1	-9.69	-9.23	-7.71	-5.44	-2.81	-0.24	2.01	3.89	5.5	6.94	8.24	9.36	10.18	10.65	10.82	10.8	10.73	10.7	10.69	10.62	10.44	10.14	9.85	9.72	9.87	10.3	10.88	11.39	11.59	11.35	10.67	9.62	8.27	6.64	4.68	2.35	-0.28	-3.04	-5.64	-7.81	-9.39	-10.31	-10.55	-10.1	-8.91
8.81	9.34	9.54	9.29	8.59	7.58	6.49	5.51	4.78	4.24	3.75	3.09	2.07	0.62	-1.23	-3.38	-5.61	-7.63	-9.1	-9.69	-9.23	-7.71	-5.44	-2.81	-0.24	2.01	3.89	5.5	6.94	8.24	9.36	10.18	10.65	10.82	10.8	10.73	10.7	10.69	10.62	10.44	10.14	9.85	9.72	9.87	10.3	10.88	11.39	11.59	11.35	10.67	9.62	8.27	6.64	4.68	2.35	-0.28	-3.04	-5.64	-7.81	-9.39	-10.31	-10.55	-10.1	-8.91	-6.95	-4.34	-1.36	1.58	4.11	6.06	7.48	8.58	9.56	10.5	11.37	12.09	12.64	13.1	13.58	14.13	14.62	14.83	14.52	13.55	11.97	10.02	8.01	6.22	4.79	3.71	2.83	2.02	1.21	0.42	-0.28	-0.96	-1.77	-2.95	-4.61	-6.62	-8.53	-9.74	-9.77	-8.48	-6.12	-3.22	-0.33	2.21	4.32	6.06	7.53	8.71	9.53	9.92	9.88	9.52	9	8.48	8.02	7.63	7.26	6.9	6.6	6.42	6.4	6.52	6.69	6.78
-6.95	-4.34	-1.36	1.58	4.11	6.06	7.48	8.58	9.56	10.5	11.37	12.09	12.64	13.1	13.58	14.13	14.62	14.83	14.52	13.55	11.97	10.02	8.01	6.22	4.79	3.71	2.83	2.02	1.21	0.42	-0.28	-0.96	-1.77	-2.95	-4.61	-6.62	-8.53	-9.74	-9.77	-8.48	-6.12	-3.22	-0.33	2.21	4.32	6.06	7.53	8.71	9.53	9.92	9.88	9.52	9	8.48	8.02	7.63	7.26	6.9	6.6	6.42	6.4	6.52	6.69	6.78	6.63	6.16	5.33	4.2	2.9	1.59	0.39	-0.68	-1.7	-2.82	-4.17	-5.76	-7.42	-8.84	-9.7	-9.82	-9.21	-8.04	-6.53	-4.81	-2.94	-0.95	1.07	2.96	4.5	5.58	6.22	6.59	6.89	7.27	7.74	8.17	8.41	8.34	7.96	7.37	6.69	6.06	5.52	5	4.39	3.59	2.53	1.24	-0.18	-1.6	-2.92	-4.13	-5.28	-6.49	-7.81	-9.17	-10.45	-11.44	-11.96	-11.93	-11.36	-10.34	-8.95	-7.23	-5.25	-3.12	-1.05	0.72
6.63	6.16	5.33	4.2	2.9	1.59	0.39	-0.68	-1.7	-2.82	-4.17	-5.76	-7.42	-8.84	-9.7	-9.82	-9.21	-8.04	-6.53	-4.81	-2.94	-0.95	1.07	2.96	4.5	5.58	6.22	6.59	6.89	7.27	7.74	8.17	8.41	8.34	7.96	7.37	6.69	6.06	5.52	5	4.39	3.59	2.53	1.24	-0.18	-1.6	-2.92	-4.13	-5.28	-6.49	-7.81	-9.17	-10.45	-11.44	-11.96	-11.93	-11.36	-10.34	-8.95	-7.23	-5.25	-3.12	-1.05	0.72	1.98	2.65	2.84	2.75	2.57	2.42	2.37	2.39	2.49	2.69	2.97	3.28	3.55	3.73	3.83	3.93	4.07	4.21	4.19	3.87	3.18	2.15	0.92	-0.37	-1.71	-3.15	-4.75	-6.5	-8.24	-9.67	-10.53	-10.65	-10.08	-9.01	-7.66	-6.17	-4.55	-2.69	-0.53	1.88	4.29	6.37	7.82	8.51	8.53	8.08	7.41	6.67	5.9	5.05	4.11	3.14	2.26	1.63	1.32	1.3	1.42	1.48	1.3	0.83	0.11	-0.7	-1.48	-2.14
1.98	2.65	2.84	2.75	2.57	2.42	2.37	2.39	2.49	2.69	2.97	3.28	3.55	3.73	3.83	3.93	4.07	4.21	4.19	3.87	3.18	2.15	0.92	-0.37	-1.71	-3.15	-4.75	-6.5	-8.24	-9.67	-10.53	-10.65	-10.08	-9.01	-7.66	-6.17	-4.55	-2.69	-0.53	1.88	4.29	6.37	7.82	8.51	8.53	8.08	7.41	6.67	5.9	5.05	4.11	3.14	2.26	1.63	1.32	1.3	1.42	1.48	1.3	0.83	0.11	-0.7	-1.48	-2.14	-2.72	-3.3	-4	-4.85	-5.83	-6.84	-7.7	-8.24	-8.29	-7.8	-6.79	-5.39	-3.8	-2.16	-0.61	0.87	2.27	3.6	4.8	5.76	6.38	6.61	6.46	6.03	5.42	4.75	4.08	3.5	3.08	2.89	2.94	3.18	3.47	3.66	3.63	3.35	2.87	2.29	1.69	1.1	0.46	-0.34	-1.37	-2.67	-4.2	-5.84	-7.44	-8.84	-9.86	-10.36	-10.19	-9.29	-7.7	-5.58	-3.23	-0.98	0.86	2.15	2.95	3.42	3.74	4.03	4.26	4.35
