-0	-0	-0	-0	-0	-0	-0	-0	-0	-0	0	0.01	0.01	-0	-0.03	-0.05	-0.05	0	0.13	0.36	0.66	1.01	1.37	1.72	2.06	2.4	2.79	3.24	3.8	4.41	5.05	5.66	6.22	6.72	7.2	7.72	8.27	8.95	9.68	10.37	10.96	11.43	11.85	12.37	13.18	14.38	16.18	18.37	20.73	23.01	25.08	27.03	29.13	31.73	35.07	39.47	44.6	50.01	55.26	60.07	64.55	69.05	74.09	79.96	87.06	94.94	102.99	110.65	117.61	123.98	130.19	137.16	143.13	150.08	158.66	169.38	181.62	193.01	199.37	195.79	178.22	145.03	98.13	41.39	-20.27	-82.77	-143.8	-202.74	-259.86	-315.49	-369.63	-421.74	-471.7	-519.18	-562.99	-600.31	-626.42	-635.55	-622.66	-585.52	-525.71	-448.8	-362.45	-274.21	-189.7	-112.01	-42.19	19.66	73.53	119.3	156.82	186.34	208.73	225.14	236.74	244.31	248.15	248.21	244.46	237.17	227.04	215.11	202.45	189.82	177.51	165.43	153.31	141.02
87.06	94.94	102.99	110.65	117.61	123.98	130.19	137.16	143.13	150.08	158.66	169.38	181.62	193.01	199.37	195.79	178.22	145.03	98.13	41.39	-20.27	-82.77	-143.8	-202.74	-259.86	-315.49	-369.63	-421.74	-471.7	-519.18	-562.99	-600.31	-626.42	-635.55	-622.66	-585.52	-525.71	-448.8	-362.45	-274.21	-189.7	-112.01	-42.19	19.66	73.53	119.3	156.82	186.34	208.73	225.14	236.74	244.31	248.15	248.21	244.46	237.17	227.04	215.11	202.45	189.82	177.51	165.43	153.31	141.02	128.66	116.6	105.28	95.06	86	77.89	70.36	63.02	55.66	48.29	41.12	34.44	28.44	23.19	18.58	14.43	10.62	7.18	4.13	1.51	-0.65	-2.37	-3.7	-4.69	-5.42	-5.98	-6.45	-6.91	-7.39	-7.83	-8.13	-8.21	-8.05	-7.73	-7.37	-7.1	-6.96	-6.95	-6.95	-6.84	-6.56	-6.12	-5.62	-5.2	-4.99	-5.03	-5.3	-5.65	-5.89	-5.86	-5.48	-4.78	-3.89	-3	-2.24	-1.71	-1.39	-1.25	-1.2	-1.15	-1.03	-0.8	-0.45	0.01
128.66	116.6	105.28	95.06	86	77.89	70.36	63.02	55.66	48.29	41.12	34.44	28.44	23.19	18.58	14.43	10.62	7.18	4.13	1.51	-0.65	-2.37	-3.7	-4.69	-5.42	-5.98	-6.45	-6.91	-7.39	-7.83	-8.13	-8.21	-8.05	-7.73	-7.37	-7.1	-6.96	-6.95	-6.95	-6.84	-6.56	-6.12	-5.62	-5.2	-4.99	-5.03	-5.3	-5.65	-5.89	-5.86	-5.48	-4.78	-3.89	-3	-2.24	-1.71	-1.39	-1.25	-1.2	-1.15	-1.03	-0.8	-0.45	0.01	0.51	0.98	1.35	1.59	1.72	1.76	1.75	1.68	1.53	1.28	0.94	0.57	0.26	0.06	-0.06	-0.11	-0.18	-0.28	-0.39	-0.48	-0.56	-0.65	-0.79	-0.98	-1.15	-1.22	-1.11	-0.82	-0.36	0.2	0.76	1.14	1.11	0.53	-0.54	-1.74	-2.53	-2.44	-1.33	0.46	2.32	3.63	4.12	3.87	3.3	2.75	2.39	2.12	1.72	1.06	0.16	-0.86	-1.84	-2.71	-3.41	-3.95	-4.36	-4.61	-4.68	-4.55	-4.18	-3.55	-2.67	-1.63
0.51	0.98	1.35	1.59	1.72	1.76	1.75	1.68	1.53	1.28	0.94	0.57	0.26	0.06	-0.06	-0.11	-0.18	-0.28	-0.39	-0.48	-0.56	-0.65	-0.79	-0.98	-1.15	-1.22	-1.11	-0.82	-0.36	0.2	0.76	1.14	1.11	0.53	-0.54	-1.74	-2.53	-2.44	-1.33	0.46	2.32	3.63	4.12	3.87	3.3	2.75	2.39	2.12	1.72	1.06	0.16	-0.86	-1.84	-2.71	-3.41	-3.95	-4.36	-4.61	-4.68	-4.55	-4.18	-3.55	-2.67	-1.63	-0.63	0.11	0.38	0.14	-0.46	-1.13	-1.57	-1.62	-1.28	-0.77	-0.32	-0.07	-0.06	-0.19	-0.35	-0.44	-0.47	-0.49	-0.52	-0.56	-0.61	-0.66	-0.73	-0.86	-1.07	-1.3	-1.48	-1.53	-1.42	-1.18	-0.93	-0.79	-0.87	-1.2	-1.73	-2.32	-2.8	-2.97	-2.68	-1.87	-0.61	0.88	2.34	3.51	4.25	4.58	4.57	4.32	3.89	3.26	2.34	1.1	-0.37	-1.88	-3.16	-3.98	-4.2	-3.83	-3	-1.91	-0.76	0.26	0.95	1.21
-0.63	0.11	0.38	0.14	-0.46	-1.13	-1.57	-1.62	-1.28	-0.77	-0.32	-0.07	-0.06	-0.19	-0.35	-0.44	-0.47	-0.49	-0.52	-0.56	-0.61	-0.66	-0.73	-0.86	-1.07	-1.3	-1.48	-1.53	-1.42	-1.18	-0.93	-0.79	-0.87	-1.2	-1.73	-2.32	-2.8	-2.97	-2.68	-1.87	-0.61	0.88	2.34	3.51	4.25	4.58	4.57	4.32	3.89	3.26	2.34	1.1	-0.37	-1.88	-3.16	-3.98	-4.2	-3.83	-3	-1.91	-0.76	0.26	0.95	1.21	1.02	0.45	-0.31	-1.08	-1.77	-2.44	-3.31	-4.68	-6.8	-9.75	-13.34	-17.06	-20.18	-21.93	-21.7	-19.27	-14.9	-9.2	-2.91	3.33	9.18	14.5	19.24	23.28	26.37	28.23	28.74	28.02	26.43	24.39	22.21	19.99	17.63	15	12.03	8.85	5.71	2.92	0.72	-0.81	-1.75	-2.27	-2.55	-2.69	-2.7	-2.55	-2.19	-1.69	-1.21	-0.93	-0.99	-1.37	-1.97	-2.62	-3.21	-3.69	-4.15	-4.67	-5.34	-6.11	-6.86	-7.34	-7.32	-6.59
1.02	0.45	-0.31	-1.08	-1.77	-2.44	-3.31	-4.68	-6.8	-9.75	-13.34	-17.06	-20.18	-21.93	-21.7	-19.27	-14.9	-9.2	-2.91	3.33	9.18	14.5	19.24	23.28	26.37	28.23	28.74	28.02	26.43	24.39	22.21	19.99	17.63	15	12.03	8.85	5.71	2.92	0.72	-0.81	-1.75	-2.27	-2.55	-2.69	-2.7	-2.55	-2.19	-1.69	-1.21	-0.93	-0.99	-1.37	-1.97	-2.62	-3.21	-3.69	-4.15	-4.67	-5.34	-6.11	-6.86	-7.34	-7.32	-6.59	-5.13	-3.04	-0.58	1.92	4.15	5.88	6.96	7.32	6.96	5.94	4.42	2.63	0.87	-0.6	-1.61	-2.08	-2.09	-1.75	-1.22	-0.68	-0.28	-0.13	-0.21	-0.44	-0.64	-0.65	-0.42	-0.06	0.21	0.17	-0.29	-1.15	-2.21	-3.26	-4.12	-4.72	-5.12	-5.42	-5.78	-6.3	-7.03	-7.93	-8.83	-9.5	-9.65	-9.05	-7.6	-5.38	-2.66	0.19	2.77	4.75	5.94	6.27	5.83	4.75	3.25	1.57	-0.03	-1.36	-2.25	-2.65	-2.58	-2.17
-5.13	-3.04	-0.58	1.92	4.15	5.88	6.96	7.32	6.96	5.94	4.42	2.63	0.87	-0.6	-1.61	-2.08	-2.09	-1.75	-1.22	-0.68	-0.28	-0.13	-0.21	-0.44	-0.64	-0.65	-0.42	-0.06	0.21	0.17	-0.29	-1.15	-2.21	-3.26	-4.12	-4.72	-5.12	-5.42	-5.78	-6.3	-7.03	-7.93	-8.83	-9.5	-9.65	-9.05	-7.6	-5.38	-2.66	0.19	2.77	4.75	5.94	6.27	5.83	4.75	3.25	1.57	-0.03	-1.36	-2.25	-2.65	-2.58	-2.17	-1.55	-0.84	-0.17	0.39	0.77	0.91	0.8	0.46	-0.03	-0.58	-1.13	-1.69	-2.29	-2.97	-3.74	-4.47	-5.02	-5.31	-5.33	-5.22	-5.18	-5.36	-5.8	-6.45	-7.18	-7.84	-8.29	-8.4	-8.04	-7.11	-5.55	-3.44	-0.96	1.61	3.95	5.82	7.07	7.66	7.65	7.11	6.17	4.95	3.59	2.27	1.19	0.52	0.33	0.61	1.22	2.01	2.81	3.53	4.09	4.49	4.68	4.65	4.39	3.86	3.09	2.11	0.98	-0.21	-1.35	-2.31
-1.55	-0.84	-0.17	0.39	0.77	0.91	0.8	0.46	-0.03	-0.58	-1.13	-1.69	-2.29	-2.97	-3.74	-4.47	-5.02	-5.31	-5.33	-5.22	-5.18	-5.36	-5.8	-6.45	-7.18	-7.84	-8.29	-8.4	-8.04	-7.11	-5.55	-3.44	-0.96	1.61	3.95	5.82	7.07	7.66	7.65	7.11	6.17	4.95	3.59	2.27	1.19	0.52	0.33	0.61	1.22	2.01	2.81	3.53	4.09	4.49	4.68	4.65	4.39	3.86	3.09	2.11	0.98	-0.21	-1.35	-2.31	-3.01	-3.42	-3.61	-3.68	-3.78	-4.04	-4.52	-5.19	-5.94	-6.6	-6.99	-6.92	-6.3	-5.08	-3.33	-1.2	1.08	3.25	5.07	6.34	7.01	7.13	6.84	6.32	5.7	5.06	4.43	3.86	3.39	3.09	2.96	2.94	2.95	2.89	2.73	2.54	2.41	2.35	2.3	2.1	1.6	0.79	-0.17	-1.04	-1.61	-1.83	-1.82	-1.83	-2.05	-2.58	-3.37	-4.32	-5.32	-6.3	-7.14	-7.62	-7.44	-6.33	-4.19	-1.25	2.01	5	7.25	8.58
-3.01	-3.42	-3.61	-3.68	-3.78	-4.04	-4.52	-5.19	-5.94	-6.6	-6.99	-6.92	-6.3	-5.08	-3.33	-1.2	1.08	3.25	5.07	6.34	7.01	7.13	6.84	6.32	5.7	5.06	4.43	3.86	3.39	3.09	2.96	2.94	2.95	2.89	2.73	2.54	2.41	2.35	2.3	2.1	1.6	0.79	-0.17	-1.04	-1.61	-1.83	-1.82	-1.83	-2.05	-2.58	-3.37	-4.32	-5.32	-6.3	-7.14	-7.62	-7.44	-6.33	-4.19	-1.25	2.01	5	7.25	8.58	9.12	9.15	8.92	8.51	7.85	6.83	5.45	3.88	2.39	1.26	0.63	0.47	0.63	0.86	0.95	0.82	0.46	0.04	-0.3	-0.42	-0.34	-0.18	-0.13	-0.34	-0.86	-1.59	-2.38	-3.09	-3.69	-4.21	-4.71	-5.29	-6	-6.9	-8.05	-9.44	-10.99	-12.46	-13.51	-13.74	-12.87	-10.85	-7.89	-4.42	-0.94	2.13	4.54	6.2	7.13	7.37	6.98	6.02	4.64	2.99	1.3	-0.24	-1.48	-2.35	-2.79	-2.82	-2.49	-1.91	-1.22	-0.55
9.12	9.15	8.92	8.51	7.85	6.83	5.45	3.88	2.39	1.26	0.63	0.47	0.63	0.86	0.95	0.82	0.46	0.04	-0.3	-0.42	-0.34	-0.18	-0.13	-0.34	-0.86	-1.59	-2.38	-3.09	-3.69	-4.21	-4.71	-5.29	-6	-6.9	-8.05	-9.44	-10.99	-12.46	-13.51	-13.74	-12.87	-10.85	-7.89	-4.42	-0.94	2.13	4.54	6.2	7.13	7.37	6.98	6.02	4.64	2.99	1.3	-0.24	-1.48	-2.35	-2.79	-2.82	-2.49	-1.91	-1.22	-0.55	0.01	0.47	0.88	1.29	1.68	2	2.16	2.1	1.85	1.48	1.08	0.72	0.4	0.05	-0.35	-0.82	-1.34	-1.84	-2.31	-2.76	-3.29	-3.98	-4.84	-5.74	-6.39	-6.42	-5.53	-3.62	-0.83	2.45	5.77	8.67	10.85	12.19	12.74	12.65	12.11	11.31	10.41	9.47	8.53	7.55	6.54	5.54	4.67	4.02	3.68	3.66	3.87	4.17	4.39	4.38	4.03	3.35	2.45	1.5	0.67	0.07	-0.3	-0.5	-0.63	-0.78	-1.02	-1.38
0.01	0.47	0.88	1.29	1.68	2	2.16	2.1	1.85	1.48	1.08	0.72	0.4	0.05	-0.35	-0.82	-1.34	-1.84	-2.31	-2.76	-3.29	-3.98	-4.84	-5.74	-6.39	-6.42	-5.53	-3.62	-0.83	2.45	5.77	8.67	10.85	12.19	12.74	12.65	12.11	11.31	10.41	9.47	8.53	7.55	6.54	5.54	4.67	4.02	3.68	3.66	3.87	4.17	4.39	4.38	4.03	3.35	2.45	1.5	0.67	0.07	-0.3	-0.5	-0.63	-0.78	-1.02	-1.38	-1.9	-2.58	-3.42	-4.42	-5.58	-6.94	-8.6	-10.62	-12.98	-15.48	-17.72	-19.2	-19.46	-18.23	-15.57	-11.85	-7.62	-3.49	0.04	2.66	4.29	4.98	4.9	4.23	3.19	1.97	0.79	-0.18	-0.78	-0.96	-0.75	-0.27	0.34	0.94	1.44	1.79	1.96	1.9	1.58	0.97	0.15	-0.77	-1.65	-2.39	-2.93	-3.29	-3.54	-3.73	-3.87	-3.95	-3.96	-3.9	-3.81	-3.77	-3.86	-4.15	-4.71	-5.49	-6.34	-7.01	-7.17	-6.59	-5.15	-2.98
-1.9	-2.58	-3.42	-4.42	-5.58	-6.94	-8.6	-10.62	-12.98	-15.48	-17.72	-19.2	-19.46	-18.23	-15.57	-11.85	-7.62	-3.49	0.04	2.66	4.29	4.98	4.9	4.23	3.19	1.97	0.79	-0.18	-0.78	-0.96	-0.75	-0.27	0.34	0.94	1.44	1.79	1.96	1.9	1.58	0.97	0.15	-0.77	-1.65	-2.39	-2.93	-3.29	-3.54	-3.73	-3.87	-3.95	-3.96	-3.9	-3.81	-3.77	-3.86	-4.15	-4.71	-5.49	-6.34	-7.01	-7.17	-6.59	-5.15	-2.98	-0.35	2.4	4.98	7.17	8.81	9.76	9.87	8.99	7.12	4.46	1.39	-1.61	-4.1	-5.83	-6.79	-7.14	-7.15	-7.05	-6.98	-6.96	-6.99	-7.01	-7.02	-7.03	-7.05	-7.14	-7.36	-7.8	-8.47	-9.37	-10.39	-11.4	-12.31	-13.08	-13.83	-14.71	-15.92	-17.55	-19.5	-21.46	-22.94	-23.31	-21.99	-18.62	-13.24	-6.33	1.27	8.58	14.83	19.59	22.81	24.73	25.6	25.61	24.86	23.41	21.39	19.02	16.55	14.2	12.13	10.45	9.28	8.74
-0.35	2.4	4.98	7.17	8.81	9.76	9.87	8.99	7.12	4.46	1.39	-1.61	-4.1	-5.83	-6.79	-7.14	-7.15	-7.05	-6.98	-6.96	-6.99	-7.01	-7.02	-7.03	-7.05	-7.14	-7.36	-7.8	-8.47	-9.37	-10.39	-11.4	-12.31	-13.08	-13.83	-14.71	-15.92	-17.55	-19.5	-21.46	-22.94	-23.31	-21.99	-18.62	-13.24	-6.33	1.27	8.58	14.83	19.59	22.81	24.73	25.6	25.61	24.86	23.41	21.39	19.02	16.55	14.2	12.13	10.45	9.28	8.74	8.9	9.71	10.92	12.14	12.95	13.06	12.39	11.08	9.41	7.67	6.09	4.82	3.91	3.35	3.05	2.87	2.64	2.14	1.2	-0.23	-2.06	-4.03	-5.74	-6.83	-7.01	-6.2	-4.51	-2.23	0.3	2.73	4.81	6.38	7.36	7.78	7.73	7.32	6.68	5.91	5.08	4.22	3.4	2.69	2.18	1.95	1.98	2.17	2.33	2.31	2.09	1.76	1.52	1.49	1.67	1.88	1.89	1.52	0.79	-0.15	-1.05	-1.77	-2.31	-2.78	-3.36	-4.18
8.9	9.71	10.92	12.14	12.95	13.06	12.39	11.08	9.41	7.67	6.09	4.82	3.91	3.35	3.05	2.87	2.64	2.14	1.2	-0.23	-2.06	-4.03	-5.74	-6.83	-7.01	-6.2	-4.51	-2.23	0.3	2.73	4.81	6.38	7.36	7.78	7.73	7.32	6.68	5.91	5.08	4.22	3.4	2.69	2.18	1.95	1.98	2.17	2.33	2.31	2.09	1.76	1.52	1.49	1.67	1.88	1.89	1.52	0.79	-0.15	-1.05	-1.77	-2.31	-2.78	-3.36	-4.18	-5.24	-6.45	-7.62	-8.59	-9.15	-9.13	-8.43	-7	-4.94	-2.44	0.23	2.79	4.99	6.68	7.79	8.3	8.23	7.68	6.76	5.65	4.5	3.49	2.69	2.14	1.83	1.71	1.77	2	2.33	2.67	2.87	2.79	2.29	1.4	0.26	-0.88	-1.81	-2.39	-2.68	-2.82	-3.02	-3.4	-3.99	-4.74	-5.57	-6.45	-7.36	-8.25	-8.99	-9.34	-9.03	-7.9	-5.94	-3.36	-0.51	2.25	4.65	6.52	7.81	8.53	8.72	8.45	7.82	6.95
-5.24	-6.45	-7.62	-8.59	-9.15	-9.13	-8.43	-7	-4.94	-2.44	0.23	2.79	4.99	6.68	7.79	8.3	8.23	7.68	6.76	5.65	4.5	3.49	2.69	2.14	1.83	1.71	1.77	2	2.33	2.67	2.87	2.79	2.29	1.4	0.26	-0.88	-1.81	-2.39	-2.68	-2.82	-3.02	-3.4	-3.99	-4.74	-5.57	-6.45	-7.36	-8.25	-8.99	-9.34	-9.03	-7.9	-5.94	-3.36	-0.51	2.25	4.65	6.52	7.81	8.53	8.72	8.45	7.82	6.95	5.97	5.01	4.2	3.63	3.33	3.29	3.42	3.64	3.82	3.9	3.86	3.73	3.56	3.38	3.17	2.89	2.48	1.9	1.18	0.35	-0.51	-1.3	-1.97	-2.51	-2.95	-3.33	-3.68	-4.03	-4.44	-4.97	-5.63	-6.39	-7.04	-7.32	-6.95	-5.76	-3.82	-1.42	1.09	3.37	5.23	6.59	7.45	7.83	7.71	7.1	6.1	4.86	3.63	2.6	1.89	1.54	1.48	1.62	1.85	2.1	2.3	2.43	2.43	2.3	2.02	1.63	1.17	0.7
5.97	5.01	4.2	3.63	3.33	3.29	3.42	3.64	3.82	3.9	3.86	3.73	3.56	3.38	3.17	2.89	2.48	1.9	1.18	0.35	-0.51	-1.3	-1.97	-2.51	-2.95	-3.33	-3.68	-4.03	-4.44	-4.97	-5.63	-6.39	-7.04	-7.32	-6.95	-5.76	-3.82	-1.42	1.09	3.37	5.23	6.59	7.45	7.83	7.71	7.1	6.1	4.86	3.63	2.6	1.89	1.54	1.48	1.62	1.85	2.1	2.3	2.43	2.43	2.3	2.02	1.63	1.17	0.7	0.26	-0.14	-0.55	-1.03	-1.61	-2.31	-3.05	-3.73	-4.21	-4.43	-4.39	-4.21	-4.07	-4.15	-4.6	-5.44	-6.62	-7.95	-9.12	-9.77	-9.55	-8.27	-5.94	-2.87	0.43	3.44	5.74	7.16	7.77	7.78	7.43	6.89	6.24	5.54	4.84	4.21	3.72	3.38	3.16	3	2.86	2.72	2.6	2.5	2.46	2.47	2.5	2.54	2.52	2.42	2.15	1.67	0.97	0.09	-0.85	-1.74	-2.45	-2.96	-3.3	-3.53	-3.75	-3.99	-4.3	-4.69
0.26	-0.14	-0.55	-1.03	-1.61	-2.31	-3.05	-3.73	-4.21	-4.43	-4.39	-4.21	-4.07	-4.15	-4.6	-5.44	-6.62	-7.95	-9.12	-9.77	-9.55	-8.27	-5.94	-2.87	0.43	3.44	5.74	7.16	7.77	7.78	7.43	6.89	6.24	5.54	4.84	4.21	3.72	3.38	3.16	3	2.86	2.72	2.6	2.5	2.46	2.47	2.5	2.54	2.52	2.42	2.15	1.67	0.97	0.09	-0.85	-1.74	-2.45	-2.96	-3.3	-3.53	-3.75	-3.99	-4.3	-4.69	-5.22	-5.9	-6.72	-7.59	-8.3	-8.63	-8.34	-7.32	-5.6	-3.37	-0.93	1.41	3.41	4.93	5.92	6.43	6.5	6.22	5.65	4.86	3.97	3.08	2.3	1.71	1.36	1.24	1.31	1.5	1.76	2.03	2.29	2.54	2.78	3.01	3.16	3.12	2.83	2.28	1.58	0.87	0.27	-0.22	-0.68	-1.19	-1.79	-2.41	-2.91	-3.23	-3.39	-3.52	-3.76	-4.19	-4.8	-5.49	-6.12	-6.59	-6.78	-6.58	-5.86	-4.55	-2.67	-0.43	1.88	3.94
-5.22	-5.9	-6.72	-7.59	-8.3	-8.63	-8.34	-7.32	-5.6	-3.37	-0.93	1.41	3.41	4.93	5.92	6.43	6.5	6.22	5.65	4.86	3.97	3.08	2.3	1.71	1.36	1.24	1.31	1.5	1.76	2.03	2.29	2.54	2.78	3.01	3.16	3.12	2.83	2.28	1.58	0.87	0.27	-0.22	-0.68	-1.19	-1.79	-2.41	-2.91	-3.23	-3.39	-3.52	-3.76	-4.19	-4.8	-5.49	-6.12	-6.59	-6.78	-6.58	-5.86	-4.55	-2.67	-0.43	1.88	3.94	5.51	6.52	7.02	7.15	7.02	6.68	6.14	5.39	4.47	3.45	2.49	1.74	1.3	1.17	1.28	1.52	1.79	2	2.12	2.16	2.08	1.83	1.39	0.74	-0.05	-0.91	-1.74	-2.52	-3.3	-4.13	-5.02	-5.89	-6.62	-7.06	-7.15	-6.91	-6.48	-6.06	-5.82	-5.88	-6.23	-6.75	-7.23	-7.4	-7.02	-5.97	-4.26	-2.06	0.36	2.73	4.75	6.24	7.05	7.13	6.5	5.3	3.73	2.02	0.34	-1.19	-2.5	-3.55	-4.33	-4.85
5.51	6.52	7.02	7.15	7.02	6.68	6.14	5.39	4.47	3.45	2.49	1.74	1.3	1.17	1.28	1.52	1.79	2	2.12	2.16	2.08	1.83	1.39	0.74	-0.05	-0.91	-1.74	-2.52	-3.3	-4.13	-5.02	-5.89	-6.62	-7.06	-7.15	-6.91	-6.48	-6.06	-5.82	-5.88	-6.23	-6.75	-7.23	-7.4	-7.02	-5.97	-4.26	-2.06	0.36	2.73	4.75	6.24	7.05	7.13	6.5	5.3	3.73	2.02	0.34	-1.19	-2.5	-3.55	-4.33	-4.85	-5.17	-5.43	-5.79	-6.35	-7.12	-8	-8.84	-9.54	-10.15	-10.79	-11.64	-12.8	-14.26	-15.93	-17.7	-19.48	-21.26	-23.08	-25.06	-27.32	-30.06	-33.43	-37.47	-42.01	-46.56	-50.41	-52.74	-52.88	-50.51	-45.76	-39.16	-31.45	-23.34	-15.37	-7.84	-0.84	5.6	11.44	16.61	20.94	24.27	26.47	27.56	27.65	26.99	25.89	24.61	23.3	22.01	20.67	19.24	17.73	16.21	14.8	13.51	12.27	10.93	9.35	7.51	5.51	3.57	1.91	0.64	-0.24
-5.17	-5.43	-5.79	-6.35	-7.12	-8	-8.84	-9.54	-10.15	-10.79	-11.64	-12.8	-14.26	-15.93	-17.7	-19.48	-21.26	-23.08	-25.06	-27.32	-30.06	-33.43	-37.47	-42.01	-46.56	-50.41	-52.74	-52.88	-50.51	-45.76	-39.16	-31.45	-23.34	-15.37	-7.84	-0.84	5.6	11.44	16.61	20.94	24.27	26.47	27.56	27.65	26.99	25.89	24.61	23.3	22.01	20.67	19.24	17.73	16.21	14.8	13.51	12.27	10.93	9.35	7.51	5.51	3.57	1.91	0.64	-0.24	-0.81	-1.18	-1.43	-1.66	-1.96	-2.46	-3.25	-4.36	-5.7	-7.07	-8.2	-8.87	-8.93	-8.36	-7.2	-5.6	-3.71	-1.71	0.22	1.97	3.5	4.87	6.25	7.81	9.66	11.83	14.18	16.5	18.56	20.2	21.34	22.04	22.4	22.58	22.74	23.03	23.52	24.23	25.12	26.04	26.81	27.25	27.25	26.78	25.89	24.67	23.26	21.75	20.24	18.75	17.26	15.71	14.02	12.14	10.09	8	6.05	4.46	3.45	3.13	3.47	4.33	5.44	6.48
-0.81	-1.18	-1.43	-1.66	-1.96	-2.46	-3.25	-4.36	-5.7	-7.07	-8.2	-8.87	-8.93	-8.36	-7.2	-5.6	-3.71	-1.71	0.22	1.97	3.5	4.87	6.25	7.81	9.66	11.83	14.18	16.5	18.56	20.2	21.34	22.04	22.4	22.58	22.74	23.03	23.52	24.23	25.12	26.04	26.81	27.25	27.25	26.78	25.89	24.67	23.26	21.75	20.24	18.75	17.26	15.71	14.02	12.14	10.09	8	6.05	4.46	3.45	3.13	3.47	4.33	5.44	6.48	7.18	7.42	7.23	6.75	6.15	5.51	4.79	3.88	2.71	1.31	-0.13	-1.4	-2.31	-2.86	-3.18	-3.47	-3.91	-4.5	-5.13	-5.66	-5.96	-6.06	-6.09	-6.23	-6.64	-7.37	-8.34	-9.42	-10.44	-11.28	-11.86	-12.1	-11.99	-11.52	-10.78	-9.91	-9.16	-8.74	-8.79	-9.25	-9.9	-10.41	-10.47	-9.91	-8.73	-7.12	-5.33	-3.61	-2.1	-0.86	0.17	1.09	1.97	2.85	3.73	4.57	5.4	6.27	7.28	8.49	9.9	11.46	13.03	14.46
7.18	7.42	7.23	6.75	6.15	5.51	4.79	3.88	2.71	1.31	-0.13	-1.4	-2.31	-2.86	-3.18	-3.47	-3.91	-4.5	-5.13	-5.66	-5.96	-6.06	-6.09	-6.23	-6.64	-7.37	-8.34	-9.42	-10.44	-11.28	-11.86	-12.1	-11.99	-11.52	-10.78	-9.91	-9.16	-8.74	-8.79	-9.25	-9.9	-10.41	-10.47	-9.91	-8.73	-7.12	-5.33	-3.61	-2.1	-0.86	0.17	1.09	1.97	2.85	3.73	4.57	5.4	6.27	7.28	8.49	9.9	11.46	13.03	14.46	15.64	16.51	17.08	17.35	17.34	17.07	16.53	15.76	14.8	13.73	12.64	11.58	10.57	9.58	8.56	7.46	6.28	5.03	3.72	2.34	0.87	-0.66	-2.15	-3.4	-4.18	-4.34	-3.89	-3.01	-1.98	-1.07	-0.46	-0.22	-0.31	-0.69	-1.28	-2	-2.78	-3.49	-4.03	-4.33	-4.42	-4.38	-4.3	-4.24	-4.19	-4.01	-3.54	-2.6	-1.05	1.1	3.71	6.47	9.02	11.03	12.3	12.84	12.78	12.33	11.64	10.81	9.84	8.73	7.49	6.14
15.64	16.51	17.08	17.35	17.34	17.07	16.53	15.76	14.8	13.73	12.64	11.58	10.57	9.58	8.56	7.46	6.28	5.03	3.72	2.34	0.87	-0.66	-2.15	-3.4	-4.18	-4.34	-3.89	-3.01	-1.98	-1.07	-0.46	-0.22	-0.31	-0.69	-1.28	-2	-2.78	-3.49	-4.03	-4.33	-4.42	-4.38	-4.3	-4.24	-4.19	-4.01	-3.54	-2.6	-1.05	1.1	3.71	6.47	9.02	11.03	12.3	12.84	12.78	12.33	11.64	10.81	9.84	8.73	7.49	6.14	4.72	3.25	1.79	0.48	-0.46	-0.77	-0.31	0.87	2.54	4.33	5.94	7.2	8.11	8.78	9.28	9.63	9.82	9.84	9.68	9.34	8.79	7.94	6.73	5.18	3.42	1.64	0.05	-1.23	-2.18	-2.9	-3.49	-4.05	-4.65	-5.33	-6.11	-6.99	-7.96	-8.98	-9.96	-10.81	-11.49	-11.97	-12.25	-12.39	-12.41	-12.34	-12.24	-12.15	-12.16	-12.3	-12.52	-12.63	-12.41	-11.7	-10.47	-8.86	-7.15	-5.63	-4.46	-3.62	-2.99	-2.46	-2	-1.72
4.72	3.25	1.79	0.48	-0.46	-0.77	-0.31	0.87	2.54	4.33	5.94	7.2	8.11	8.78	9.28	9.63	9.82	9.84	9.68	9.34	8.79	7.94	6.73	5.18	3.42	1.64	0.05	-1.23	-2.18	-2.9	-3.49	-4.05	-4.65	-5.33	-6.11	-6.99	-7.96	-8.98	-9.96	-10.81	-11.49	-11.97	-12.25	-12.39	-12.41	-12.34	-12.24	-12.15	-12.16	-12.3	-12.52	-12.63	-12.41	-11.7	-10.47	-8.86	-7.15	-5.63	-4.46	-3.62	-2.99	-2.46	-2	-1.72	-1.76	-2.18	-2.91	-3.75	-4.46	-4.86	-4.92	-4.76	-4.53	-4.35	-4.26	-4.2	-4.09	-3.85	-3.51	-3.18	-2.99	-3.05	-3.42	-4.06	-4.82	-5.58	-6.18	-6.55	-6.7	-6.72	-6.72	-6.87	-7.29	-8.01	-8.99	-10.03	-10.9	-11.33	-11.12	-10.2	-8.66	-6.76	-4.84	-3.29	-2.33	-2.03	-2.21	-2.62	-3	-3.27	-3.52	-3.88	-4.46	-5.15	-5.7	-5.86	-5.51	-4.79	-3.96	-3.29	-2.87	-2.61	-2.33	-1.89	-1.34	-0.87	-0.69	-0.92
-1.76	-2.18	-2.91	-3.75	-4.46	-4.86	-4.92	-4.76	-4.53	-4.35	-4.26	-4.2	-4.09	-3.85	-3.51	-3.18	-2.99	-3.05	-3.42	-4.06	-4.82	-5.58	-6.18	-6.55	-6.7	-6.72	-6.72	-6.87	-7.29	-8.01	-8.99	-10.03	-10.9	-11.33	-11.12	-10.2	-8.66	-6.76	-4.84	-3.29	-2.33	-2.03	-2.21	-2.62	-3	-3.27	-3.52	-3.88	-4.46	-5.15	-5.7	-5.86	-5.51	-4.79	-3.96	-3.29	-2.87	-2.61	-2.33	-1.89	-1.34	-0.87	-0.69	-0.92	-1.46	-2.09	-2.62	-2.99	-3.32	-3.86	-4.76	-6.06	-7.58	-9.07	-10.33	-11.35	-12.29	-13.35	-14.66	-16.1	-17.42	-18.28	-18.48	-18.02	-17.07	-15.86	-14.53	-13.1	-11.57	-9.94	-8.38	-7.09	-6.28	-5.93	-5.83	-5.59	-4.87	-3.49	-1.55	0.64	2.67	4.24	5.25	5.81	6.21	6.75	7.64	8.93	10.49	12.13	13.67	15	16.08	16.88	17.39	17.58	17.46	17.1	16.61	16.08	15.48	14.65	13.39	11.6	9.42	7.18	5.35	4.24
-1.46	-2.09	-2.62	-2.99	-3.32	-3.86	-4.76	-6.06	-7.58	-9.07	-10.33	-11.35	-12.29	-13.35	-14.66	-16.1	-17.42	-18.28	-18.48	-18.02	-17.07	-15.86	-14.53	-13.1	-11.57	-9.94	-8.38	-7.09	-6.28	-5.93	-5.83	-5.59	-4.87	-3.49	-1.55	0.64	2.67	4.24	5.25	5.81	6.21	6.75	7.64	8.93	10.49	12.13	13.67	15	16.08	16.88	17.39	17.58	17.46	17.1	16.61	16.08	15.48	14.65	13.39	11.6	9.42	7.18	5.35	4.24	3.93	4.24	4.82	5.34	5.61	5.61	5.41	5.12	4.83	4.62	4.54	4.65	5.01	5.59	6.31	7.06	7.71	8.16	8.39	8.43	8.33	8.19	8.07	8.03	8.05	8.06	7.92	7.49	6.67	5.46	4.01	2.5	1.17	0.15	-0.51	-0.85	-1	-1.09	-1.24	-1.56	-2.14	-3.03	-4.15	-5.34	-6.34	-6.86	-6.68	-5.77	-4.25	-2.39	-0.5	1.19	2.51	3.39	3.82	3.81	3.39	2.66	1.74	0.77	-0.14	-0.93	-1.57	-2.05
3.93	4.24	4.82	5.34	5.61	5.61	5.41	5.12	4.83	4.62	4.54	4.65	5.01	5.59	6.31	7.06	7.71	8.16	8.39	8.43	8.33	8.19	8.07	8.03	8.05	8.06	7.92	7.49	6.67	5.46	4.01	2.5	1.17	0.15	-0.51	-0.85	-1	-1.09	-1.24	-1.56	-2.14	-3.03	-4.15	-5.34	-6.34	-6.86	-6.68	-5.77	-4.25	-2.39	-0.5	1.19	2.51	3.39	3.82	3.81	3.39	2.66	1.74	0.77	-0.14	-0.93	-1.57	-2.05	-2.31	-2.27	-1.88	-1.14	-0.14	0.97	2	2.83	3.41	3.76	3.97	4.11	4.2	4.23	4.16	3.96	3.67	3.34	3.03	2.77	2.49	2.14	1.64	1.04	0.42	-0.09	-0.39	-0.46	-0.28	0.17	0.92	1.99	3.3	4.67	5.86	6.69	7.04	7	6.68	6.23	5.73	5.19	4.62	4.05	3.53	3.11	2.81	2.55	2.3	2.02	1.74	1.52	1.37	1.27	1.15	0.94	0.58	0.04	-0.66	-1.48	-2.32	-3.07	-3.6	-3.83
-2.31	-2.27	-1.88	-1.14	-0.14	0.97	2	2.83	3.41	3.76	3.97	4.11	4.2	4.23	4.16	3.96	3.67	3.34	3.03	2.77	2.49	2.14	1.64	1.04	0.42	-0.09	-0.39	-0.46	-0.28	0.17	0.92	1.99	3.3	4.67	5.86	6.69	7.04	7	6.68	6.23	5.73	5.19	4.62	4.05	3.53	3.11	2.81	2.55	2.3	2.02	1.74	1.52	1.37	1.27	1.15	0.94	0.58	0.04	-0.66	-1.48	-2.32	-3.07	-3.6	-3.83	-3.78	-3.53	-3.23	-3.04	-3.02	-3.21	-3.57	-4.07	-4.7	-5.39	-6.02	-6.44	-6.45	-5.94	-4.91	-3.47	-1.81	-0.15	1.35	2.6	3.55	4.2	4.54	4.57	4.34	3.91	3.41	2.96	2.73	2.8	3.23	3.97	4.86	5.68	6.19	6.2	5.64	4.53	3.04	1.39	-0.18	-1.48	-2.36	-2.81	-2.9	-2.82	-2.79	-3.01	-3.55	-4.34	-5.2	-5.95	-6.51	-6.9	-7.24	-7.61	-7.99	-8.24	-8.17	-7.63	-6.6	-5.25	-3.85	-2.63
-3.78	-3.53	-3.23	-3.04	-3.02	-3.21	-3.57	-4.07	-4.7	-5.39	-6.02	-6.44	-6.45	-5.94	-4.91	-3.47	-1.81	-0.15	1.35	2.6	3.55	4.2	4.54	4.57	4.34	3.91	3.41	2.96	2.73	2.8	3.23	3.97	4.86	5.68	6.19	6.2	5.64	4.53	3.04	1.39	-0.18	-1.48	-2.36	-2.81	-2.9	-2.82	-2.79	-3.01	-3.55	-4.34	-5.2	-5.95	-6.51	-6.9	-7.24	-7.61	-7.99	-8.24	-8.17	-7.63	-6.6	-5.25	-3.85	-2.63	-1.71	-1.1	-0.7	-0.44	-0.31	-0.41	-0.8	-1.46	-2.24	-2.89	-3.19	-3.01	-2.44	-1.71	-1.1	-0.83	-0.96	-1.39	-1.91	-2.3	-2.46	-2.38	-2.15	-1.94	-1.89	-2.11	-2.58	-3.25	-3.97	-4.61	-5.09	-5.4	-5.64	-5.93	-6.4	-7.08	-7.93	-8.78	-9.41	-9.62	-9.29	-8.42	-7.11	-5.57	-3.96	-2.42	-1.02	0.2	1.17	1.83	2.08	1.91	1.43	0.81	0.28	-0.02	-0.09	-0.03	0.04	0.07	0.13	0.37	0.92	1.77
-1.71	-1.1	-0.7	-0.44	-0.31	-0.41	-0.8	-1.46	-2.24	-2.89	-3.19	-3.01	-2.44	-1.71	-1.1	-0.83	-0.96	-1.39	-1.91	-2.3	-2.46	-2.38	-2.15	-1.94	-1.89	-2.11	-2.58	-3.25	-3.97	-4.61	-5.09	-5.4	-5.64	-5.93	-6.4	-7.08	-7.93	-8.78	-9.41	-9.62	-9.29	-8.42	-7.11	-5.57	-3.96	-2.42	-1.02	0.2	1.17	1.83	2.08	1.91	1.43	0.81	0.28	-0.02	-0.09	-0.03	0.04	0.07	0.13	0.37	0.92	1.77	2.82	3.81	4.51	4.77	4.54	3.9	3.01	2.02	1.1	0.37	-0.11	-0.36	-0.47	-0.61	-0.93	-1.5	-2.29	-3.1	-3.64	-3.65	-2.96	-1.6	0.17	2.02	3.59	4.66	5.17	5.18	4.84	4.26	3.57	2.85	2.2	1.75	1.57	1.67	1.92	2.13	2.15	1.92	1.55	1.2	1.06	1.13	1.3	1.35	1.07	0.39	-0.6	-1.69	-2.64	-3.3	-3.65	-3.76	-3.77	-3.81	-4.01	-4.42	-5.02	-5.68	-6.17	-6.24	-5.69	-4.51
2.82	3.81	4.51	4.77	4.54	3.9	3.01	2.02	1.1	0.37	-0.11	-0.36	-0.47	-0.61	-0.93	-1.5	-2.29	-3.1	-3.64	-3.65	-2.96	-1.6	0.17	2.02	3.59	4.66	5.17	5.18	4.84	4.26	3.57	2.85	2.2	1.75	1.57	1.67	1.92	2.13	2.15	1.92	1.55	1.2	1.06	1.13	1.3	1.35	1.07	0.39	-0.6	-1.69	-2.64	-3.3	-3.65	-3.76	-3.77	-3.81	-4.01	-4.42	-5.02	-5.68	-6.17	-6.24	-5.69	-4.51	-2.83	-0.92	0.93	2.5	3.66	4.41	4.75	4.74	4.39	3.78	3.03	2.28	1.69	1.32	1.2	1.25	1.36	1.44	1.46	1.46	1.49	1.62	1.83	2.02	2.04	1.79	1.22	0.42	-0.45	-1.25	-1.87	-2.35	-2.74	-3.14	-3.61	-4.18	-4.83	-5.49	-6.08	-6.48	-6.52	-6.04	-4.96	-3.32	-1.33	0.66	2.34	3.46	3.98	4.01	3.72	3.24	2.7	2.11	1.53	0.97	0.47	0.07	-0.26	-0.54	-0.83	-1.12	-1.39	-1.59
-2.83	-0.92	0.93	2.5	3.66	4.41	4.75	4.74	4.39	3.78	3.03	2.28	1.69	1.32	1.2	1.25	1.36	1.44	1.46	1.46	1.49	1.62	1.83	2.02	2.04	1.79	1.22	0.42	-0.45	-1.25	-1.87	-2.35	-2.74	-3.14	-3.61	-4.18	-4.83	-5.49	-6.08	-6.48	-6.52	-6.04	-4.96	-3.32	-1.33	0.66	2.34	3.46	3.98	4.01	3.72	3.24	2.7	2.11	1.53	0.97	0.47	0.07	-0.26	-0.54	-0.83	-1.12	-1.39	-1.59	-1.68	-1.63	-1.49	-1.34	-1.29	-1.43	-1.8	-2.37	-3.05	-3.75	-4.4	-5.03	-5.7	-6.47	-7.32	-8.17	-8.82	-9.07	-8.73	-7.72	-6.07	-3.94	-1.54	0.91	3.18	5.09	6.48	7.26	7.41	6.99	6.14	5.04	3.92	3.01	2.45	2.32	2.59	3.11	3.75	4.33	4.79	5.08	5.23	5.21	5.03	4.65	4.12	3.5	2.86	2.21	1.51	0.66	-0.39	-1.6	-2.81	-3.79	-4.33	-4.34	-3.86	-2.97	-1.78	-0.37	1.15	2.65
-1.68	-1.63	-1.49	-1.34	-1.29	-1.43	-1.8	-2.37	-3.05	-3.75	-4.4	-5.03	-5.7	-6.47	-7.32	-8.17	-8.82	-9.07	-8.73	-7.72	-6.07	-3.94	-1.54	0.91	3.18	5.09	6.48	7.26	7.41	6.99	6.14	5.04	3.92	3.01	2.45	2.32	2.59	3.11	3.75	4.33	4.79	5.08	5.23	5.21	5.03	4.65	4.12	3.5	2.86	2.21	1.51	0.66	-0.39	-1.6	-2.81	-3.79	-4.33	-4.34	-3.86	-2.97	-1.78	-0.37	1.15	2.65	3.95	4.85	5.24	5.13	4.66	4.05	3.44	2.92	2.46	2	1.54	1.11	0.79	0.65	0.67	0.78	0.9	0.93	0.82	0.57	0.19	-0.29	-0.84	-1.42	-1.95	-2.36	-2.6	-2.68	-2.65	-2.64	-2.79	-3.22	-3.96	-4.88	-5.74	-6.19	-5.96	-4.92	-3.21	-1.13	0.93	2.65	3.93	4.77	5.29	5.53	5.46	5.02	4.18	3.07	1.9	0.93	0.31	0.11	0.26	0.61	1.03	1.42	1.72	1.92	2.02	2.03	1.98	1.84
3.95	4.85	5.24	5.13	4.66	4.05	3.44	2.92	2.46	2	1.54	1.11	0.79	0.65	0.67	0.78	0.9	0.93	0.82	0.57	0.19	-0.29	-0.84	-1.42	-1.95	-2.36	-2.6	-2.68	-2.65	-2.64	-2.79	-3.22	-3.96	-4.88	-5.74	-6.19	-5.96	-4.92	-3.21	-1.13	0.93	2.65	3.93	4.77	5.29	5.53	5.46	5.02	4.18	3.07	1.9	0.93	0.31	0.11	0.26	0.61	1.03	1.42	1.72	1.92	2.02	2.03	1.98	1.84	1.57	1.16	0.62	-0	-0.59	-1.04	-1.28	-1.35	-1.34	-1.4	-1.62	-2.04	-2.62	-3.25	-3.81	-4.18	-4.26	-3.97	-3.23	-2.05	-0.49	1.3	3.11	4.73	6.02	6.94	7.53	7.85	7.95	7.83	7.49	6.96	6.3	5.68	5.24	5.04	5.08	5.26	5.44	5.5	5.34	4.94	4.29	3.44	2.48	1.49	0.6	-0.14	-0.67	-1	-1.17	-1.26	-1.37	-1.59	-1.94	-2.39	-2.86	-3.28	-3.64	-3.96	-4.34	-4.87	-5.55	-6.25
1.57	1.16	0.62	-0	-0.59	-1.04	-1.28	-1.35	-1.34	-1.4	-1.62	-2.04	-2.62	-3.25	-3.81	-4.18	-4.26	-3.97	-3.23	-2.05	-0.49	1.3	3.11	4.73	6.02	6.94	7.53	7.85	7.95	7.83	7.49	6.96	6.3	5.68	5.24	5.04	5.08	5.26	5.44	5.5	5.34	4.94	4.29	3.44	2.48	1.49	0.6	-0.14	-0.67	-1	-1.17	-1.26	-1.37	-1.59	-1.94	-2.39	-2.86	-3.28	-3.64	-3.96	-4.34	-4.87	-5.55	-6.25	-6.74	-6.77	-6.16	-4.92	-3.2	-1.3	0.49	1.92	2.88	3.35	3.39	3.06	2.41	1.5	0.44	-0.59	-1.38	-1.76	-1.71	-1.32	-0.79	-0.31	0.04	0.27	0.48	0.7	0.88	0.89	0.65	0.15	-0.52	-1.18	-1.72	-2.09	-2.33	-2.51	-2.72	-3	-3.4	-3.95	-4.68	-5.57	-6.51	-7.29	-7.69	-7.48	-6.59	-5.08	-3.21	-1.3	0.37	1.6	2.36	2.7	2.74	2.56	2.2	1.67	0.99	0.24	-0.45	-0.97	-1.22	-1.19
-6.74	-6.77	-6.16	-4.92	-3.2	-1.3	0.49	1.92	2.88	3.35	3.39	3.06	2.41	1.5	0.44	-0.59	-1.38	-1.76	-1.71	-1.32	-0.79	-0.31	0.04	0.27	0.48	0.7	0.88	0.89	0.65	0.15	-0.52	-1.18	-1.72	-2.09	-2.33	-2.51	-2.72	-3	-3.4	-3.95	-4.68	-5.57	-6.51	-7.29	-7.69	-7.48	-6.59	-5.08	-3.21	-1.3	0.37	1.6	2.36	2.7	2.74	2.56	2.2	1.67	0.99	0.24	-0.45	-0.97	-1.22	-1.19	-0.98	-0.69	-0.46	-0.33	-0.31	-0.32	-0.32	-0.32	-0.36	-0.52	-0.83	-1.22	-1.57	-1.73	-1.68	-1.46	-1.26	-1.28	-1.64	-2.34	-3.19	-3.99	-4.49	-4.57	-4.18	-3.37	-2.21	-0.82	0.71	2.24	3.65	4.8	5.59	5.98	5.98	5.62	4.96	4.1	3.16	2.27	1.58	1.16	0.97	0.92	0.84	0.62	0.2	-0.33	-0.86	-1.24	-1.42	-1.42	-1.35	-1.36	-1.57	-2.04	-2.73	-3.54	-4.31	-4.96	-5.43	-5.8	-6.19	-6.74
-0.98	-0.69	-0.46	-0.33	-0.31	-0.32	-0.32	-0.32	-0.36	-0.52	-0.83	-1.22	-1.57	-1.73	-1.68	-1.46	-1.26	-1.28	-1.64	-2.34	-3.19	-3.99	-4.49	-4.57	-4.18	-3.37	-2.21	-0.82	0.71	2.24	3.65	4.8	5.59	5.98	5.98	5.62	4.96	4.1	3.16	2.27	1.58	1.16	0.97	0.92	0.84	0.62	0.2	-0.33	-0.86	-1.24	-1.42	-1.42	-1.35	-1.36	-1.57	-2.04	-2.73	-3.54	-4.31	-4.96	-5.43	-5.8	-6.19	-6.74	-7.52	-8.46	-9.33	-9.86	-9.75	-8.86	-7.21	-4.98	-2.47	-0.01	2.13	3.73	4.71	5.02	4.72	3.94	2.88	1.8	0.91	0.35	0.14	0.19	0.33	0.46	0.49	0.46	0.45	0.48	0.54	0.59	0.57	0.42	0.14	-0.28	-0.83	-1.5	-2.21	-2.85	-3.32	-3.57	-3.66	-3.76	-4.07	-4.73	-5.74	-6.9	-7.92	-8.47	-8.28	-7.25	-5.42	-3.01	-0.36	2.18	4.28	5.74	6.47	6.51	6.03	5.19	4.2	3.2	2.29	1.57
-7.52	-8.46	-9.33	-9.86	-9.75	-8.86	-7.21	-4.98	-2.47	-0.01	2.13	3.73	4.71	5.02	4.72	3.94	2.88	1.8	0.91	0.35	0.14	0.19	0.33	0.46	0.49	0.46	0.45	0.48	0.54	0.59	0.57	0.42	0.14	-0.28	-0.83	-1.5	-2.21	-2.85	-3.32	-3.57	-3.66	-3.76	-4.07	-4.73	-5.74	-6.9	-7.92	-8.47	-8.28	-7.25	-5.42	-3.01	-0.36	2.18	4.28	5.74	6.47	6.51	6.03	5.19	4.2	3.2	2.29	1.57	1.07	0.8	0.71	0.73	0.78	0.81	0.84	0.93	1.14	1.44	1.73	1.83	1.59	0.99	0.15	-0.74	-1.48	-1.99	-2.32	-2.6	-2.95	-3.43	-4.05	-4.82	-5.72	-6.65	-7.46	-7.86	-7.56	-6.38	-4.37	-1.81	0.86	3.25	5.06	6.21	6.77	6.87	6.63	6.17	5.57	4.93	4.34	3.89	3.61	3.48	3.46	3.48	3.49	3.44	3.28	2.98	2.55	2.04	1.56	1.18	0.89	0.61	0.21	-0.4	-1.23	-2.14	-2.96	-3.55
1.07	0.8	0.71	0.73	0.78	0.81	0.84	0.93	1.14	1.44	1.73	1.83	1.59	0.99	0.15	-0.74	-1.48	-1.99	-2.32	-2.6	-2.95	-3.43	-4.05	-4.82	-5.72	-6.65	-7.46	-7.86	-7.56	-6.38	-4.37	-1.81	0.86	3.25	5.06	6.21	6.77	6.87	6.63	6.17	5.57	4.93	4.34	3.89	3.61	3.48	3.46	3.48	3.49	3.44	3.28	2.98	2.55	2.04	1.56	1.18	0.89	0.61	0.21	-0.4	-1.23	-2.14	-2.96	-3.55	-3.88	-4.04	-4.23	-4.58	-5.17	-5.96	-6.86	-7.71	-8.32	-8.51	-8.1	-6.93	-4.99	-2.39	0.6	3.57	6.12	7.92	8.82	8.83	8.09	6.87	5.45	4.11	3.12	2.64	2.69	3.18	3.89	4.56	4.97	5.05	4.85	4.49	4.1	3.78	3.53	3.31	3.08	2.8	2.46	2.07	1.62	1.11	0.53	-0.12	-0.85	-1.61	-2.36	-3.03	-3.59	-4.04	-4.48	-5.02	-5.77	-6.73	-7.76	-8.58	-8.86	-8.28	-6.72	-4.27	-1.26	1.84
-3.88	-4.04	-4.23	-4.58	-5.17	-5.96	-6.86	-7.71	-8.32	-8.51	-8.1	-6.93	-4.99	-2.39	0.6	3.57	6.12	7.92	8.82	8.83	8.09	6.87	5.45	4.11	3.12	2.64	2.69	3.18	3.89	4.56	4.97	5.05	4.85	4.49	4.1	3.78	3.53	3.31	3.08	2.8	2.46	2.07	1.62	1.11	0.53	-0.12	-0.85	-1.61	-2.36	-3.03	-3.59	-4.04	-4.48	-5.02	-5.77	-6.73	-7.76	-8.58	-8.86	-8.28	-6.72	-4.27	-1.26	1.84	4.56	6.56	7.71	8.1	7.95	7.47	6.8	5.96	4.94	3.8	2.72	1.92	1.61	1.84	2.48	3.31	4.08	4.65	4.99	5.11	5.04	4.77	4.25	3.49	2.55	1.57	0.67	-0.06	-0.62	-1.08	-1.52	-1.98	-2.42	-2.72	-2.83	-2.78	-2.71	-2.85	-3.37	-4.28	-5.41	-6.46	-7.06	-6.94	-5.96	-4.18	-1.8	0.86	3.48	5.78	7.56	8.69	9.16	8.99	8.28	7.18	5.86	4.5	3.26	2.25	1.54	1.17	1.15	1.44
4.56	6.56	7.71	8.1	7.95	7.47	6.8	5.96	4.94	3.8	2.72	1.92	1.61	1.84	2.48	3.31	4.08	4.65	4.99	5.11	5.04	4.77	4.25	3.49	2.55	1.57	0.67	-0.06	-0.62	-1.08	-1.52	-1.98	-2.42	-2.72	-2.83	-2.78	-2.71	-2.85	-3.37	-4.28	-5.41	-6.46	-7.06	-6.94	-5.96	-4.18	-1.8	0.86	3.48	5.78	7.56	8.69	9.16	8.99	8.28	7.18	5.86	4.5	3.26	2.25	1.54	1.17	1.15	1.44	1.96	2.57	3.11	3.48	3.62	3.52	3.21	2.76	2.22	1.64	1.09	0.61	0.19	-0.24	-0.77	-1.43	-2.19	-2.95	-3.64	-4.25	-4.83	-5.49	-6.22	-6.96	-7.52	-7.67	-7.25	-6.19	-4.52	-2.4	-0.01	2.4	4.58	6.29	7.39	7.83	7.68	7.09	6.21	5.18	4.09	3.07	2.23	1.7	1.57	1.8	2.26	2.73	3.01	2.98	2.63	2.08	1.49	0.99	0.66	0.46	0.29	0.05	-0.35	-0.9	-1.53	-2.13	-2.63	-3.02
1.96	2.57	3.11	3.48	3.62	3.52	3.21	2.76	2.22	1.64	1.09	0.61	0.19	-0.24	-0.77	-1.43	-2.19	-2.95	-3.64	-4.25	-4.83	-5.49	-6.22	-6.96	-7.52	-7.67	-7.25	-6.19	-4.52	-2.4	-0.01	2.4	4.58	6.29	7.39	7.83	7.68	7.09	6.21	5.18	4.09	3.07	2.23	1.7	1.57	1.8	2.26	2.73	3.01	2.98	2.63	2.08	1.49	0.99	0.66	0.46	0.29	0.05	-0.35	-0.9	-1.53	-2.13	-2.63	-3.02	-3.36	-3.74	-4.27	-4.99	-5.92	-7.01	-8.14	-9.1	-9.64	-9.5	-8.52	-6.7	-4.23	-1.43	1.35	3.78	5.65	6.84	7.35	7.26	6.69	5.83	4.89	4.03	3.36	2.88	2.55	2.32	2.15	2.05	2.06	2.2	2.47	2.79	3.09	3.26	3.19	2.82	2.14	1.23	0.2	-0.8	-1.62	-2.21	-2.57	-2.8	-3.02	-3.35	-3.87	-4.61	-5.56	-6.69	-7.87	-8.91	-9.57	-9.6	-8.86	-7.32	-5.13	-2.57	0.01	2.26	3.95	4.97
-3.36	-3.74	-4.27	-4.99	-5.92	-7.01	-8.14	-9.1	-9.64	-9.5	-8.52	-6.7	-4.23	-1.43	1.35	3.78	5.65	6.84	7.35	7.26	6.69	5.83	4.89	4.03	3.36	2.88	2.55	2.32	2.15	2.05	2.06	2.2	2.47	2.79	3.09	3.26	3.19	2.82	2.14	1.23	0.2	-0.8	-1.62	-2.21	-2.57	-2.8	-3.02	-3.35	-3.87	-4.61	-5.56	-6.69	-7.87	-8.91	-9.57	-9.6	-8.86	-7.32	-5.13	-2.57	0.01	2.26	3.95	4.97	5.35	5.22	4.75	4.1	3.37	2.57	1.75	0.98	0.37	0.05	0.07	0.37	0.77	1.1	1.25	1.23	1.13	1.04	0.97	0.84	0.53	-0.01	-0.74	-1.5	-2.15	-2.62	-2.92	-3.17	-3.46	-3.89	-4.51	-5.31	-6.25	-7.22	-8.05	-8.49	-8.3	-7.32	-5.57	-3.27	-0.76	1.62	3.59	5.01	5.89	6.3	6.36	6.17	5.75	5.09	4.21	3.16	2.12	1.3	0.87	0.88	1.2	1.62	1.89	1.85	1.49	0.9	0.21	-0.47
5.35	5.22	4.75	4.1	3.37	2.57	1.75	0.98	0.37	0.05	0.07	0.37	0.77	1.1	1.25	1.23	1.13	1.04	0.97	0.84	0.53	-0.01	-0.74	-1.5	-2.15	-2.62	-2.92	-3.17	-3.46	-3.89	-4.51	-5.31	-6.25	-7.22	-8.05	-8.49	-8.3	-7.32	-5.57	-3.27	-0.76	1.62	3.59	5.01	5.89	6.3	6.36	6.17	5.75	5.09	4.21	3.16	2.12	1.3	0.87	0.88	1.2	1.62	1.89	1.85	1.49	0.9	0.21	-0.47	-1.08	-1.61	-2.07	-2.48	-2.89	-3.36	-3.95	-4.68	-5.55	-6.53	-7.59	-8.71	-9.81	-10.74	-11.29	-11.25	-10.49	-9.03	-7.03	-4.78	-2.58	-0.71	0.67	1.48	1.73	1.49	0.84	-0.15	-1.38	-2.77	-4.19	-5.46	-6.38	-6.74	-6.43	-5.48	-4.02	-2.24	-0.32	1.62	3.51	5.29	6.9	8.22	9.16	9.66	9.71	9.35	8.64	7.6	6.26	4.61	2.7	0.63	-1.4	-3.16	-4.43	-5.06	-4.97	-4.17	-2.72	-0.79	1.44	3.73
-1.08	-1.61	-2.07	-2.48	-2.89	-3.36	-3.95	-4.68	-5.55	-6.53	-7.59	-8.71	-9.81	-10.74	-11.29	-11.25	-10.49	-9.03	-7.03	-4.78	-2.58	-0.71	0.67	1.48	1.73	1.49	0.84	-0.15	-1.38	-2.77	-4.19	-5.46	-6.38	-6.74	-6.43	-5.48	-4.02	-2.24	-0.32	1.62	3.51	5.29	6.9	8.22	9.16	9.66	9.71	9.35	8.64	7.6	6.26	4.61	2.7	0.63	-1.4	-3.16	-4.43	-5.06	-4.97	-4.17	-2.72	-0.79	1.44	3.73	5.84	7.53	8.65	9.14	9.07	8.57	7.84	7.06	6.38	5.88	5.62	5.62	5.83	6.21	6.66	7.08	7.38	7.46	7.27	6.79	6.05	5.12	4.07	3.01	1.99	1.07	0.24	-0.49	-1.15	-1.77	-2.41	-3.17	-4.17	-5.44	-6.87	-8.24	-9.17	-9.35	-8.6	-6.92	-4.53	-1.73	1.14	3.78	5.96	7.48	8.26	8.32	7.83	7.01	6.12	5.35	4.75	4.31	3.95	3.63	3.37	3.21	3.22	3.4	3.68	3.93	4.07	4
5.84	7.53	8.65	9.14	9.07	8.57	7.84	7.06	6.38	5.88	5.62	5.62	5.83	6.21	6.66	7.08	7.38	7.46	7.27	6.79	6.05	5.12	4.07	3.01	1.99	1.07	0.24	-0.49	-1.15	-1.77	-2.41	-3.17	-4.17	-5.44	-6.87	-8.24	-9.17	-9.35	-8.6	-6.92	-4.53	-1.73	1.14	3.78	5.96	7.48	8.26	8.32	7.83	7.01	6.12	5.35	4.75	4.31	3.95	3.63	3.37	3.21	3.22	3.4	3.68	3.93	4.07	4	3.78	3.44	3.02	2.47	1.66	0.55	-0.77	-2.05	-3.02	-3.5	-3.54	-3.43	-3.51	-4.01	-4.95	-6.13	-7.29	-8.17	-8.66	-8.69	-8.21	-7.16	-5.48	-3.25	-0.65	2.01	4.38	6.15	7.18	7.45	7.07	6.24	5.16	3.99	2.9	2.02	1.44	1.19	1.24	1.47	1.75	1.93	1.96	1.85	1.7	1.57	1.5	1.45	1.3	0.97	0.39	-0.41	-1.33	-2.26	-3.07	-3.73	-4.27	-4.78	-5.35	-6.09	-7.04	-8.18	-9.45	-10.72
3.78	3.44	3.02	2.47	1.66	0.55	-0.77	-2.05	-3.02	-3.5	-3.54	-3.43	-3.51	-4.01	-4.95	-6.13	-7.29	-8.17	-8.66	-8.69	-8.21	-7.16	-5.48	-3.25	-0.65	2.01	4.38	6.15	7.18	7.45	7.07	6.24	5.16	3.99	2.9	2.02	1.44	1.19	1.24	1.47	1.75	1.93	1.96	1.85	1.7	1.57	1.5	1.45	1.3	0.97	0.39	-0.41	-1.33	-2.26	-3.07	-3.73	-4.27	-4.78	-5.35	-6.09	-7.04	-8.18	-9.45	-10.72	-11.84	-12.62	-12.87	-12.42	-11.23	-9.36	-7.01	-4.46	-1.96	0.28	2.18	3.69	4.83	5.61	6.04	6.13	5.9	5.45	4.91	4.43	4.14	4.14	4.45	5.01	5.69	6.35	6.81	6.98	6.82	6.39	5.78	5.08	4.3	3.44	2.49	1.5	0.55	-0.26	-0.9	-1.43	-1.93	-2.5	-3.14	-3.79	-4.37	-4.87	-5.35	-5.88	-6.44	-6.86	-6.87	-6.21	-4.8	-2.77	-0.43	1.85	3.74	5.06	5.77	5.88	5.49	4.71	3.69	2.63
-11.84	-12.62	-12.87	-12.42	-11.23	-9.36	-7.01	-4.46	-1.96	0.28	2.18	3.69	4.83	5.61	6.04	6.13	5.9	5.45	4.91	4.43	4.14	4.14	4.45	5.01	5.69	6.35	6.81	6.98	6.82	6.39	5.78	5.08	4.3	3.44	2.49	1.5	0.55	-0.26	-0.9	-1.43	-1.93	-2.5	-3.14	-3.79	-4.37	-4.87	-5.35	-5.88	-6.44	-6.86	-6.87	-6.21	-4.8	-2.77	-0.43	1.85	3.74	5.06	5.77	5.88	5.49	4.71	3.69	2.63	1.71	1.08	0.81	0.88	1.18	1.55	1.89	2.07	2.09	1.95	1.74	1.51	1.26	0.94	0.44	-0.28	-1.17	-2.06	-2.74	-3.07	-3.07	-2.93	-2.9	-3.21	-3.92	-4.95	-6.08	-7.1	-7.82	-8.14	-7.96	-7.22	-5.91	-4.08	-1.96	0.16	1.97	3.28	4.02	4.29	4.29	4.16	3.99	3.77	3.46	3.03	2.52	1.99	1.52	1.17	0.94	0.84	0.84	0.9	0.97	1.03	1.06	1.09	1.16	1.25	1.29	1.18	0.82	0.23
1.71	1.08	0.81	0.88	1.18	1.55	1.89	2.07	2.09	1.95	1.74	1.51	1.26	0.94	0.44	-0.28	-1.17	-2.06	-2.74	-3.07	-3.07	-2.93	-2.9	-3.21	-3.92	-4.95	-6.08	-7.1	-7.82	-8.14	-7.96	-7.22	-5.91	-4.08	-1.96	0.16	1.97	3.28	4.02	4.29	4.29	4.16	3.99	3.77	3.46	3.03	2.52	1.99	1.52	1.17	0.94	0.84	0.84	0.9	0.97	1.03	1.06	1.09	1.16	1.25	1.29	1.18	0.82	0.23	-0.46	-1.06	-1.48	-1.73	-1.95	-2.31	-2.92	-3.76	-4.74	-5.74	-6.71	-7.58	-8.27	-8.62	-8.42	-7.47	-5.72	-3.28	-0.47	2.33	4.7	6.39	7.31	7.57	7.38	6.99	6.58	6.22	5.91	5.64	5.43	5.31	5.3	5.35	5.39	5.32	5.12	4.83	4.53	4.25	3.96	3.51	2.78	1.73	0.45	-0.87	-1.96	-2.68	-3.01	-3.09	-3.16	-3.47	-4.17	-5.31	-6.77	-8.33	-9.66	-10.46	-10.45	-9.48	-7.6	-5.06	-2.21	0.55
-0.46	-1.06	-1.48	-1.73	-1.95	-2.31	-2.92	-3.76	-4.74	-5.74	-6.71	-7.58	-8.27	-8.62	-8.42	-7.47	-5.72	-3.28	-0.47	2.33	4.7	6.39	7.31	7.57	7.38	6.99	6.58	6.22	5.91	5.64	5.43	5.31	5.3	5.35	5.39	5.32	5.12	4.83	4.53	4.25	3.96	3.51	2.78	1.73	0.45	-0.87	-1.96	-2.68	-3.01	-3.09	-3.16	-3.47	-4.17	-5.31	-6.77	-8.33	-9.66	-10.46	-10.45	-9.48	-7.6	-5.06	-2.21	0.55	2.92	4.74	5.99	6.74	7.06	7.02	6.68	6.12	5.49	4.96	4.7	4.73	4.96	5.19	5.2	4.9	4.34	3.71	3.2	2.91	2.76	2.56	2.13	1.39	0.43	-0.61	-1.58	-2.45	-3.27	-4.1	-5	-5.93	-6.85	-7.74	-8.63	-9.51	-10.33	-10.89	-10.89	-10.09	-8.37	-5.88	-2.97	-0.04	2.56	4.65	6.22	7.32	7.97	8.17	7.86	7.08	6.02	4.94	4.13	3.77	3.84	4.18	4.55	4.75	4.72	4.5	4.21	3.95
2.92	4.74	5.99	6.74	7.06	7.02	6.68	6.12	5.49	4.96	4.7	4.73	4.96	5.19	5.2	4.9	4.34	3.71	3.2	2.91	2.76	2.56	2.13	1.39	0.43	-0.61	-1.58	-2.45	-3.27	-4.1	-5	-5.93	-6.85	-7.74	-8.63	-9.51	-10.33	-10.89	-10.89	-10.09	-8.37	-5.88	-2.97	-0.04	2.56	4.65	6.22	7.32	7.97	8.17	7.86	7.08	6.02	4.94	4.13	3.77	3.84	4.18	4.55	4.75	4.72	4.5	4.21	3.95	3.75	3.57	3.29	2.8	2.07	1.14	0.1	-0.95	-1.93	-2.78	-3.49	-4.08	-4.59	-5.08	-5.61	-6.25	-7.05	-7.98	-8.96	-9.8	-10.24	-10	-8.89	-6.89	-4.22	-1.29	1.49	3.79	5.47	6.55	7.11	7.21	6.88	6.14	5.12	4.02	3.1	2.54	2.42	2.65	3.06	3.5	3.85	4.11	4.31	4.49	4.66	4.74	4.66	4.31	3.65	2.72	1.63	0.53	-0.41	-1.09	-1.49	-1.68	-1.79	-1.98	-2.35	-2.97	-3.83	-4.9
3.75	3.57	3.29	2.8	2.07	1.14	0.1	-0.95	-1.93	-2.78	-3.49	-4.08	-4.59	-5.08	-5.61	-6.25	-7.05	-7.98	-8.96	-9.8	-10.24	-10	-8.89	-6.89	-4.22	-1.29	1.49	3.79	5.47	6.55	7.11	7.21	6.88	6.14	5.12	4.02	3.1	2.54	2.42	2.65	3.06	3.5	3.85	4.11	4.31	4.49	4.66	4.74	4.66	4.31	3.65	2.72	1.63	0.53	-0.41	-1.09	-1.49	-1.68	-1.79	-1.98	-2.35	-2.97	-3.83	-4.9	-6.06	-7.15	-7.94	-8.13	-7.45	-5.77	-3.19	-0.05	3.12	5.79	7.57	8.34	8.22	7.43	6.28	4.95	3.57	2.22	0.93	-0.24	-1.2	-1.9	-2.29	-2.35	-2.16	-1.79	-1.35	-0.95	-0.62	-0.36	-0.18	-0.02	0.12	0.19	0.12	-0.15	-0.64	-1.3	-2.01	-2.63	-3.05	-3.27	-3.4	-3.63	-4.12	-4.97	-6.1	-7.27	-8.18	-8.51	-8.04	-6.72	-4.67	-2.11	0.62	3.2	5.38	7	8.02	8.48	8.46	8.03	7.26	6.21
-6.06	-7.15	-7.94	-8.13	-7.45	-5.77	-3.19	-0.05	3.12	5.79	7.57	8.34	8.22	7.43	6.28	4.95	3.57	2.22	0.93	-0.24	-1.2	-1.9	-2.29	-2.35	-2.16	-1.79	-1.35	-0.95	-0.62	-0.36	-0.18	-0.02	0.12	0.19	0.12	-0.15	-0.64	-1.3	-2.01	-2.63	-3.05	-3.27	-3.4	-3.63	-4.12	-4.97	-6.1	-7.27	-8.18	-8.51	-8.04	-6.72	-4.67	-2.11	0.62	3.2	5.38	7	8.02	8.48	8.46	8.03	7.26	6.21	4.97	3.7	2.58	1.8	1.42	1.37	1.44	1.42	1.19	0.79	0.38	0.11	0.01	-0.03	-0.22	-0.68	-1.39	-2.18	-2.85	-3.3	-3.6	-3.9	-4.35	-5	-5.79	-6.63	-7.47	-8.31	-9.16	-9.91	-10.33	-10.11	-9	-6.97	-4.22	-1.15	1.78	4.21	5.93	6.92	7.25	7.02	6.35	5.34	4.14	2.92	1.88	1.15	0.78	0.72	0.84	1.03	1.19	1.27	1.25	1.17	1.02	0.85	0.64	0.39	0.03	-0.47	-1.13	-1.91
4.97	3.7	2.58	1.8	1.42	1.37	1.44	1.42	1.19	0.79	0.38	0.11	0.01	-0.03	-0.22	-0.68	-1.39	-2.18	-2.85	-3.3	-3.6	-3.9	-4.35	-5	-5.79	-6.63	-7.47	-8.31	-9.16	-9.91	-10.33	-10.11	-9	-6.97	-4.22	-1.15	1.78	4.21	5.93	6.92	7.25	7.02	6.35	5.34	4.14	2.92	1.88	1.15	0.78	0.72	0.84	1.03	1.19	1.27	1.25	1.17	1.02	0.85	0.64	0.39	0.03	-0.47	-1.13	-1.91	-2.71	-3.4	-3.91	-4.29	-4.67	-5.2	-5.96	-6.9	-7.83	-8.52	-8.71	-8.26	-7.16	-5.48	-3.42	-1.21	0.94	2.87	4.44	5.58	6.23	6.36	5.99	5.18	4.08	2.91	1.87	1.1	0.65	0.45	0.38	0.35	0.3	0.26	0.24	0.22	0.14	-0.09	-0.52	-1.11	-1.75	-2.32	-2.73	-3.03	-3.32	-3.73	-4.35	-5.19	-6.21	-7.33	-8.45	-9.42	-10.01	-9.94	-8.98	-7.08	-4.42	-1.39	1.52	3.92	5.62	6.66	7.17	7.29
-2.71	-3.4	-3.91	-4.29	-4.67	-5.2	-5.96	-6.9	-7.83	-8.52	-8.71	-8.26	-7.16	-5.48	-3.42	-1.21	0.94	2.87	4.44	5.58	6.23	6.36	5.99	5.18	4.08	2.91	1.87	1.1	0.65	0.45	0.38	0.35	0.3	0.26	0.24	0.22	0.14	-0.09	-0.52	-1.11	-1.75	-2.32	-2.73	-3.03	-3.32	-3.73	-4.35	-5.19	-6.21	-7.33	-8.45	-9.42	-10.01	-9.94	-8.98	-7.08	-4.42	-1.39	1.52	3.92	5.62	6.66	7.17	7.29	7.09	6.56	5.71	4.63	3.5	2.56	1.95	1.72	1.76	1.87	1.89	1.75	1.56	1.46	1.58	1.86	2.1	2.04	1.5	0.51	-0.71	-1.87	-2.79	-3.44	-3.97	-4.57	-5.35	-6.33	-7.39	-8.4	-9.19	-9.57	-9.35	-8.35	-6.5	-3.94	-0.97	1.96	4.45	6.27	7.35	7.8	7.77	7.4	6.79	6	5.09	4.17	3.36	2.79	2.5	2.47	2.61	2.81	2.95	2.98	2.85	2.57	2.1	1.43	0.58	-0.4	-1.36	-2.15
7.09	6.56	5.71	4.63	3.5	2.56	1.95	1.72	1.76	1.87	1.89	1.75	1.56	1.46	1.58	1.86	2.1	2.04	1.5	0.51	-0.71	-1.87	-2.79	-3.44	-3.97	-4.57	-5.35	-6.33	-7.39	-8.4	-9.19	-9.57	-9.35	-8.35	-6.5	-3.94	-0.97	1.96	4.45	6.27	7.35	7.8	7.77	7.4	6.79	6	5.09	4.17	3.36	2.79	2.5	2.47	2.61	2.81	2.95	2.98	2.85	2.57	2.1	1.43	0.58	-0.4	-1.36	-2.15	-2.67	-2.93	-3.04	-3.16	-3.43	-3.92	-4.63	-5.51	-6.54	-7.69	-8.85	-9.82	-10.35	-10.15	-9.07	-7.13	-4.5	-1.52	1.46	4.12	6.25	7.67	8.35	8.32	7.69	6.62	5.3	3.95	2.76	1.87	1.36	1.19	1.28	1.48	1.68	1.85	2.03	2.28	2.57	2.8	2.74	2.23	1.22	-0.16	-1.61	-2.84	-3.63	-4.01	-4.1	-4.11	-4.19	-4.44	-4.89	-5.54	-6.38	-7.33	-8.2	-8.72	-8.56	-7.51	-5.52	-2.78	0.36	3.46
-2.67	-2.93	-3.04	-3.16	-3.43	-3.92	-4.63	-5.51	-6.54	-7.69	-8.85	-9.82	-10.35	-10.15	-9.07	-7.13	-4.5	-1.52	1.46	4.12	6.25	7.67	8.35	8.32	7.69	6.62	5.3	3.95	2.76	1.87	1.36	1.19	1.28	1.48	1.68	1.85	2.03	2.28	2.57	2.8	2.74	2.23	1.22	-0.16	-1.61	-2.84	-3.63	-4.01	-4.1	-4.11	-4.19	-4.44	-4.89	-5.54	-6.38	-7.33	-8.2	-8.72	-8.56	-7.51	-5.52	-2.78	0.36	3.46	6.16	8.25	9.62	10.3	10.34	9.83	8.84	7.5	5.97	4.5	3.33	2.6	2.38	2.56	2.99	3.47	3.88	4.12	4.17	4.04	3.76	3.34	2.8	2.13	1.33	0.4	-0.62	-1.62	-2.52	-3.27	-3.91	-4.55	-5.3	-6.26	-7.42	-8.69	-9.88	-10.78	-11.13	-10.72	-9.4	-7.18	-4.28	-1.07	2.03	4.7	6.74	8.12	8.89	9.1	8.79	8.02	6.91	5.67	4.55	3.76	3.41	3.45	3.74	4.1	4.4	4.56	4.57	4.42
6.16	8.25	9.62	10.3	10.34	9.83	8.84	7.5	5.97	4.5	3.33	2.6	2.38	2.56	2.99	3.47	3.88	4.12	4.17	4.04	3.76	3.34	2.8	2.13	1.33	0.4	-0.62	-1.62	-2.52	-3.27	-3.91	-4.55	-5.3	-6.26	-7.42	-8.69	-9.88	-10.78	-11.13	-10.72	-9.4	-7.18	-4.28	-1.07	2.03	4.7	6.74	8.12	8.89	9.1	8.79	8.02	6.91	5.67	4.55	3.76	3.41	3.45	3.74	4.1	4.4	4.56	4.57	4.42	4.16	3.77	3.26	2.61	1.83	0.93	-0.06	-1.07	-2.01	-2.81	-3.42	-3.84	-4.13	-4.41	-4.77	-5.32	-6.12	-7.18	-8.44	-9.72	-10.75	-11.18	-10.69	-9.12	-6.51	-3.2	0.32	3.55	6.16	8	9.12	9.6	9.52	8.94	7.93	6.69	5.49	4.65	4.36	4.71	5.55	6.69	7.87	8.92	9.73	10.28	10.56	10.61	10.45	10.05	9.38	8.37	6.99	5.33	3.54	1.85	0.49	-0.46	-1.06	-1.51	-2.02	-2.79	-3.88	-5.24
4.16	3.77	3.26	2.61	1.83	0.93	-0.06	-1.07	-2.01	-2.81	-3.42	-3.84	-4.13	-4.41	-4.77	-5.32	-6.12	-7.18	-8.44	-9.72	-10.75	-11.18	-10.69	-9.12	-6.51	-3.2	0.32	3.55	6.16	8	9.12	9.6	9.52	8.94	7.93	6.69	5.49	4.65	4.36	4.71	5.55	6.69	7.87	8.92	9.73	10.28	10.56	10.61	10.45	10.05	9.38	8.37	6.99	5.33	3.54	1.85	0.49	-0.46	-1.06	-1.51	-2.02	-2.79	-3.88	-5.24	-6.75	-8.24	-9.51	-10.34	-10.53	-9.89	-8.35	-5.96	-2.99	0.23	3.27	5.81	7.59	8.54	8.7	8.2	7.24	6.05	4.81	3.7	2.82	2.24	1.98	2.01	2.26	2.6	2.91	3.11	3.18	3.11	2.95	2.7	2.3	1.71	0.91	-0.04	-1.02	-1.91	-2.66	-3.29	-3.89	-4.56	-5.35	-6.24	-7.2	-8.19	-9.15	-9.98	-10.52	-10.57	-9.9	-8.38	-6	-2.96	0.38	3.59	6.25	8.07	8.94	8.88	8.02	6.58	4.79	2.92
-6.75	-8.24	-9.51	-10.34	-10.53	-9.89	-8.35	-5.96	-2.99	0.23	3.27	5.81	7.59	8.54	8.7	8.2	7.24	6.05	4.81	3.7	2.82	2.24	1.98	2.01	2.26	2.6	2.91	3.11	3.18	3.11	2.95	2.7	2.3	1.71	0.91	-0.04	-1.02	-1.91	-2.66	-3.29	-3.89	-4.56	-5.35	-6.24	-7.2	-8.19	-9.15	-9.98	-10.52	-10.57	-9.9	-8.38	-6	-2.96	0.38	3.59	6.25	8.07	8.94	8.88	8.02	6.58	4.79	2.92	1.24	-0	-0.67	-0.78	-0.5	-0.05	0.34	0.52	0.49	0.28	-0.02	-0.38	-0.82	-1.35	-1.98	-2.66	-3.36	-4.04	-4.67	-5.3	-5.98	-6.8	-7.85	-9.16	-10.66	-12.19	-13.44	-14.06	-13.76	-12.38	-10.03	-7.01	-3.71	-0.53	2.28	4.6	6.38	7.58	8.15	8.07	7.41	6.35	5.14	4	3.06	2.37	1.9	1.62	1.53	1.59	1.76	1.95	2.09	2.12	2.01	1.74	1.28	0.61	-0.22	-1.13	-1.98	-2.66	-3.16	-3.55
1.24	-0	-0.67	-0.78	-0.5	-0.05	0.34	0.52	0.49	0.28	-0.02	-0.38	-0.82	-1.35	-1.98	-2.66	-3.36	-4.04	-4.67	-5.3	-5.98	-6.8	-7.85	-9.16	-10.66	-12.19	-13.44	-14.06	-13.76	-12.38	-10.03	-7.01	-3.71	-0.53	2.28	4.6	6.38	7.58	8.15	8.07	7.41	6.35	5.14	4	3.06	2.37	1.9	1.62	1.53	1.59	1.76	1.95	2.09	2.12	2.01	1.74	1.28	0.61	-0.22	-1.13	-1.98	-2.66	-3.16	-3.55	-3.96	-4.51	-5.27	-6.24	-7.39	-8.64	-9.89	-10.92	-11.43	-11.11	-9.77	-7.41	-4.29	-0.85	2.42	5.12	7.04	8.15	8.57	8.51	8.1	7.45	6.59	5.57	4.51	3.57	2.92	2.65	2.68	2.85	2.96	2.91	2.7	2.42	2.15	1.88	1.51	0.92	0.03	-1.13	-2.39	-3.53	-4.38	-4.84	-5	-5.01	-5.08	-5.36	-5.93	-6.72	-7.63	-8.5	-9.17	-9.46	-9.19	-8.18	-6.39	-3.88	-0.9	2.19	5	7.29	8.93	9.92
-3.96	-4.51	-5.27	-6.24	-7.39	-8.64	-9.89	-10.92	-11.43	-11.11	-9.77	-7.41	-4.29	-0.85	2.42	5.12	7.04	8.15	8.57	8.51	8.1	7.45	6.59	5.57	4.51	3.57	2.92	2.65	2.68	2.85	2.96	2.91	2.7	2.42	2.15	1.88	1.51	0.92	0.03	-1.13	-2.39	-3.53	-4.38	-4.84	-5	-5.01	-5.08	-5.36	-5.93	-6.72	-7.63	-8.5	-9.17	-9.46	-9.19	-8.18	-6.39	-3.88	-0.9	2.19	5	7.29	8.93	9.92	10.34	10.23	9.6	8.52	7.15	5.73	4.57	3.94	3.92	4.39	5.07	5.64	5.88	5.74	5.32	4.75	4.14	3.5	2.78	1.95	1.04	0.13	-0.68	-1.34	-1.88	-2.38	-2.97	-3.72	-4.66	-5.75	-6.94	-8.12	-9.18	-9.98	-10.39	-10.25	-9.43	-7.82	-5.45	-2.48	0.76	3.85	6.37	8.05	8.8	8.73	8.04	6.98	5.73	4.48	3.38	2.56	2.1	1.98	2.08	2.25	2.34	2.29	2.16	2.03	1.95	1.94	1.88	1.69
10.34	10.23	9.6	8.52	7.15	5.73	4.57	3.94	3.92	4.39	5.07	5.64	5.88	5.74	5.32	4.75	4.14	3.5	2.78	1.95	1.04	0.13	-0.68	-1.34	-1.88	-2.38	-2.97	-3.72	-4.66	-5.75	-6.94	-8.12	-9.18	-9.98	-10.39	-10.25	-9.43	-7.82	-5.45	-2.48	0.76	3.85	6.37	8.05	8.8	8.73	8.04	6.98	5.73	4.48	3.38	2.56	2.1	1.98	2.08	2.25	2.34	2.29	2.16	2.03	1.95	1.94	1.88	1.69	1.27	0.63	-0.17	-1.05	-1.96	-2.89	-3.82	-4.79	-5.78	-6.8	-7.85	-8.95	-10.04	-10.99	-11.51	-11.3	-10.13	-7.93	-4.86	-1.3	2.27	5.44	7.91	9.56	10.39	10.43	9.8	8.63	7.15	5.6	4.26	3.36	2.97	3.04	3.4	3.84	4.2	4.38	4.39	4.26	4	3.62	3.12	2.51	1.81	1.05	0.25	-0.57	-1.36	-2.09	-2.71	-3.26	-3.85	-4.63	-5.72	-7.12	-8.71	-10.24	-11.41	-11.97	-11.73	-10.62	-8.69	-6.06
1.27	0.63	-0.17	-1.05	-1.96	-2.89	-3.82	-4.79	-5.78	-6.8	-7.85	-8.95	-10.04	-10.99	-11.51	-11.3	-10.13	-7.93	-4.86	-1.3	2.27	5.44	7.91	9.56	10.39	10.43	9.8	8.63	7.15	5.6	4.26	3.36	2.97	3.04	3.4	3.84	4.2	4.38	4.39	4.26	4	3.62	3.12	2.51	1.81	1.05	0.25	-0.57	-1.36	-2.09	-2.71	-3.26	-3.85	-4.63	-5.72	-7.12	-8.71	-10.24	-11.41	-11.97	-11.73	-10.62	-8.69	-6.06	-3	0.2	3.21	5.75	7.61	8.7	9.02	8.68	7.84	6.75	5.65	4.73	4.11	3.77	3.64	3.59	3.53	3.44	3.35	3.32	3.4	3.57	3.74	3.81	3.64	3.16	2.36	1.27	-0	-1.33	-2.53	-3.48	-4.09	-4.42	-4.6	-4.82	-5.25	-5.95	-6.89	-7.98	-9.11	-10.16	-10.98	-11.37	-11.06	-9.84	-7.63	-4.57	-0.99	2.66	5.96	8.6	10.41	11.31	11.31	10.46	8.93	6.97	4.95	3.19	1.97	1.37	1.32	1.61
-3	0.2	3.21	5.75	7.61	8.7	9.02	8.68	7.84	6.75	5.65	4.73	4.11	3.77	3.64	3.59	3.53	3.44	3.35	3.32	3.4	3.57	3.74	3.81	3.64	3.16	2.36	1.27	-0	-1.33	-2.53	-3.48	-4.09	-4.42	-4.6	-4.82	-5.25	-5.95	-6.89	-7.98	-9.11	-10.16	-10.98	-11.37	-11.06	-9.84	-7.63	-4.57	-0.99	2.66	5.96	8.6	10.41	11.31	11.31	10.46	8.93	6.97	4.95	3.19	1.97	1.37	1.32	1.61	2.03	2.41	2.67	2.81	2.89	2.94	2.93	2.79	2.45	1.85	1	-0.02	-1.11	-2.11	-2.9	-3.4	-3.62	-3.65	-3.66	-3.85	-4.34	-5.17	-6.19	-7.14	-7.74	-7.73	-6.97	-5.46	-3.27	-0.6	2.33	5.21	7.75	9.65	10.74	10.98	10.46	9.4	8.02	6.54	5.15	3.95	3.03	2.41	2.08	1.97	1.95	1.91	1.75	1.47	1.14	0.83	0.59	0.38	0.05	-0.54	-1.49	-2.78	-4.24	-5.59	-6.58	-7.07	-7.13	-6.99
2.03	2.41	2.67	2.81	2.89	2.94	2.93	2.79	2.45	1.85	1	-0.02	-1.11	-2.11	-2.9	-3.4	-3.62	-3.65	-3.66	-3.85	-4.34	-5.17	-6.19	-7.14	-7.74	-7.73	-6.97	-5.46	-3.27	-0.6	2.33	5.21	7.75	9.65	10.74	10.98	10.46	9.4	8.02	6.54	5.15	3.95	3.03	2.41	2.08	1.97	1.95	1.91	1.75	1.47	1.14	0.83	0.59	0.38	0.05	-0.54	-1.49	-2.78	-4.24	-5.59	-6.58	-7.07	-7.13	-6.99	-6.96	-7.25	-7.91	-8.77	-9.5	-9.72	-9.12	-7.56	-5.12	-2.09	1.12	4.1	6.52	8.2	9.13	9.4	9.12	8.43	7.44	6.27	5.06	4	3.22	2.8	2.7	2.79	2.88	2.84	2.63	2.31	2.01	1.83	1.78	1.75	1.57	1.05	0.16	-1.02	-2.28	-3.37	-4.13	-4.55	-4.7	-4.8	-5.05	-5.64	-6.66	-8.01	-9.43	-10.54	-10.9	-10.2	-8.34	-5.5	-2.12	1.27	4.2	6.39	7.76	8.42	8.5	8.13	7.36	6.27
-6.96	-7.25	-7.91	-8.77	-9.5	-9.72	-9.12	-7.56	-5.12	-2.09	1.12	4.1	6.52	8.2	9.13	9.4	9.12	8.43	7.44	6.27	5.06	4	3.22	2.8	2.7	2.79	2.88	2.84	2.63	2.31	2.01	1.83	1.78	1.75	1.57	1.05	0.16	-1.02	-2.28	-3.37	-4.13	-4.55	-4.7	-4.8	-5.05	-5.64	-6.66	-8.01	-9.43	-10.54	-10.9	-10.2	-8.34	-5.5	-2.12	1.27	4.2	6.39	7.76	8.42	8.5	8.13	7.36	6.27	4.99	3.75	2.81	2.37	2.45	2.87	3.35	3.65	3.67	3.45	3.15	2.86	2.63	2.39	2.04	1.49	0.74	-0.16	-1.1	-1.99	-2.77	-3.41	-3.91	-4.31	-4.67	-5.05	-5.58	-6.34	-7.43	-8.83	-10.35	-11.66	-12.34	-12.02	-10.51	-7.89	-4.53	-0.9	2.48	5.28	7.35	8.72	9.45	9.64	9.33	8.61	7.64	6.66	5.98	5.8	6.18	6.96	7.85	8.52	8.78	8.58	8.03	7.3	6.54	5.82	5.13	4.42	3.6	2.65
4.99	3.75	2.81	2.37	2.45	2.87	3.35	3.65	3.67	3.45	3.15	2.86	2.63	2.39	2.04	1.49	0.74	-0.16	-1.1	-1.99	-2.77	-3.41	-3.91	-4.31	-4.67	-5.05	-5.58	-6.34	-7.43	-8.83	-10.35	-11.66	-12.34	-12.02	-10.51	-7.89	-4.53	-0.9	2.48	5.28	7.35	8.72	9.45	9.64	9.33	8.61	7.64	6.66	5.98	5.8	6.18	6.96	7.85	8.52	8.78	8.58	8.03	7.3	6.54	5.82	5.13	4.42	3.6	2.65	1.54	0.31	-0.94	-2.12	-3.15	-3.96	-4.57	-5.03	-5.46	-5.98	-6.73	-7.73	-8.88	-9.92	-10.47	-10.19	-8.86	-6.52	-3.48	-0.22	2.78	5.23	7.03	8.21	8.87	9.02	8.6	7.58	6.07	4.34	2.77	1.72	1.36	1.68	2.46	3.41	4.23	4.71	4.77	4.43	3.79	2.96	2.02	1.01	-0.08	-1.25	-2.48	-3.71	-4.84	-5.78	-6.49	-7.05	-7.62	-8.4	-9.49	-10.82	-12.13	-13.03	-13.12	-12.14	-10.08	-7.17	-3.79	-0.38
1.54	0.31	-0.94	-2.12	-3.15	-3.96	-4.57	-5.03	-5.46	-5.98	-6.73	-7.73	-8.88	-9.92	-10.47	-10.19	-8.86	-6.52	-3.48	-0.22	2.78	5.23	7.03	8.21	8.87	9.02	8.6	7.58	6.07	4.34	2.77	1.72	1.36	1.68	2.46	3.41	4.23	4.71	4.77	4.43	3.79	2.96	2.02	1.01	-0.08	-1.25	-2.48	-3.71	-4.84	-5.78	-6.49	-7.05	-7.62	-8.4	-9.49	-10.82	-12.13	-13.03	-13.12	-12.14	-10.08	-7.17	-3.79	-0.38	2.72	5.29	7.21	8.44	8.98	8.82	8	6.68	5.09	3.55	2.37	1.73	1.6	1.81	2.13	2.37	2.49	2.53	2.54	2.5	2.34	1.93	1.21	0.2	-1	-2.24	-3.39	-4.39	-5.23	-5.95	-6.63	-7.38	-8.25	-9.27	-10.4	-11.55	-12.58	-13.26	-13.33	-12.55	-10.8	-8.15	-4.88	-1.42	1.79	4.42	6.29	7.37	7.73	7.47	6.74	5.73	4.63	3.61	2.79	2.21	1.86	1.71	1.75	1.95	2.23	2.49	2.57	2.38
2.72	5.29	7.21	8.44	8.98	8.82	8	6.68	5.09	3.55	2.37	1.73	1.6	1.81	2.13	2.37	2.49	2.53	2.54	2.5	2.34	1.93	1.21	0.2	-1	-2.24	-3.39	-4.39	-5.23	-5.95	-6.63	-7.38	-8.25	-9.27	-10.4	-11.55	-12.58	-13.26	-13.33	-12.55	-10.8	-8.15	-4.88	-1.42	1.79	4.42	6.29	7.37	7.73	7.47	6.74	5.73	4.63	3.61	2.79	2.21	1.86	1.71	1.75	1.95	2.23	2.49	2.57	2.38	1.88	1.16	0.31	-0.56	-1.39	-2.15	-2.83	-3.41	-3.83	-4.06	-4.12	-4.12	-4.23	-4.67	-5.6	-6.99	-8.63	-10.1	-10.93	-10.72	-9.32	-6.86	-3.69	-0.28	2.95	5.71	7.85	9.29	10.02	10.07	9.45	8.3	6.8	5.21	3.81	2.79	2.24	2.08	2.18	2.33	2.42	2.42	2.33	2.21	2.1	1.94	1.68	1.23	0.56	-0.3	-1.21	-2.03	-2.64	-3.03	-3.29	-3.6	-4.12	-4.93	-5.99	-7.17	-8.31	-9.2	-9.68	-9.61
1.88	1.16	0.31	-0.56	-1.39	-2.15	-2.83	-3.41	-3.83	-4.06	-4.12	-4.12	-4.23	-4.67	-5.6	-6.99	-8.63	-10.1	-10.93	-10.72	-9.32	-6.86	-3.69	-0.28	2.95	5.71	7.85	9.29	10.02	10.07	9.45	8.3	6.8	5.21	3.81	2.79	2.24	2.08	2.18	2.33	2.42	2.42	2.33	2.21	2.1	1.94	1.68	1.23	0.56	-0.3	-1.21	-2.03	-2.64	-3.03	-3.29	-3.6	-4.12	-4.93	-5.99	-7.17	-8.31	-9.2	-9.68	-9.61	-8.86	-7.42	-5.32	-2.74	0.1	2.94	5.57	7.79	9.46	10.47	10.76	10.32	9.26	7.78	6.15	4.67	3.58	3.04	3.07	3.57	4.3	5.04	5.57	5.79	5.68	5.33	4.85	4.35	3.86	3.35	2.75	1.97	1	-0.11	-1.23	-2.27	-3.13	-3.79	-4.32	-4.83	-5.42	-6.2	-7.25	-8.57	-9.99	-11.23	-11.89	-11.55	-9.99	-7.23	-3.56	0.51	4.46	7.82	10.33	11.94	12.71	12.77	12.26	11.33	10.13	8.84	7.67	6.77
-8.86	-7.42	-5.32	-2.74	0.1	2.94	5.57	7.79	9.46	10.47	10.76	10.32	9.26	7.78	6.15	4.67	3.58	3.04	3.07	3.57	4.3	5.04	5.57	5.79	5.68	5.33	4.85	4.35	3.86	3.35	2.75	1.97	1	-0.11	-1.23	-2.27	-3.13	-3.79	-4.32	-4.83	-5.42	-6.2	-7.25	-8.57	-9.99	-11.23	-11.89	-11.55	-9.99	-7.23	-3.56	0.51	4.46	7.82	10.33	11.94	12.71	12.77	12.26	11.33	10.13	8.84	7.67	6.77	6.21	5.97	5.9	5.86	5.72	5.44	5.08	4.73	4.47	4.3	4.15	3.88	3.37	2.55	1.44	0.16	-1.15	-2.38	-3.46	-4.43	-5.34	-6.22	-7.1	-8.02	-9.04	-10.25	-11.63	-12.95	-13.78	-13.66	-12.23	-9.5	-5.82	-1.76	2.07	5.23	7.53	8.95	9.55	9.4	8.58	7.25	5.64	4.05	2.72	1.83	1.39	1.34	1.54	1.81	2.01	2.06	1.97	1.82	1.71	1.73	1.84	1.92	1.83	1.42	0.69	-0.3	-1.39	-2.42
6.21	5.97	5.9	5.86	5.72	5.44	5.08	4.73	4.47	4.3	4.15	3.88	3.37	2.55	1.44	0.16	-1.15	-2.38	-3.46	-4.43	-5.34	-6.22	-7.1	-8.02	-9.04	-10.25	-11.63	-12.95	-13.78	-13.66	-12.23	-9.5	-5.82	-1.76	2.07	5.23	7.53	8.95	9.55	9.4	8.58	7.25	5.64	4.05	2.72	1.83	1.39	1.34	1.54	1.81	2.01	2.06	1.97	1.82	1.71	1.73	1.84	1.92	1.83	1.42	0.69	-0.3	-1.39	-2.42	-3.28	-3.95	-4.48	-4.98	-5.58	-6.4	-7.48	-8.75	-10	-10.92	-11.16	-10.46	-8.74	-6.15	-3	0.31	3.38	5.9	7.7	8.73	9.01	8.65	7.78	6.54	5.1	3.64	2.36	1.4	0.87	0.74	0.88	1.12	1.29	1.32	1.22	1.05	0.87	0.67	0.38	-0.1	-0.81	-1.72	-2.73	-3.72	-4.59	-5.34	-6.02	-6.74	-7.59	-8.62	-9.79	-11	-12.08	-12.77	-12.78	-11.9	-10.03	-7.29	-3.98	-0.53	2.66	5.25	7.1	8.19
-3.28	-3.95	-4.48	-4.98	-5.58	-6.4	-7.48	-8.75	-10	-10.92	-11.16	-10.46	-8.74	-6.15	-3	0.31	3.38	5.9	7.7	8.73	9.01	8.65	7.78	6.54	5.1	3.64	2.36	1.4	0.87	0.74	0.88	1.12	1.29	1.32	1.22	1.05	0.87	0.67	0.38	-0.1	-0.81	-1.72	-2.73	-3.72	-4.59	-5.34	-6.02	-6.74	-7.59	-8.62	-9.79	-11	-12.08	-12.77	-12.78	-11.9	-10.03	-7.29	-3.98	-0.53	2.66	5.25	7.1	8.19	8.53	8.23	7.38	6.13	4.68	3.29	2.21	1.62	1.52	1.81	2.24	2.59	2.67	2.45	2.02	1.55	1.17	0.92	0.77	0.58	0.24	-0.29	-1.01	-1.84	-2.68	-3.49	-4.25	-5	-5.74	-6.54	-7.43	-8.43	-9.57	-10.75	-11.8	-12.42	-12.33	-11.28	-9.24	-6.35	-2.97	0.53	3.77	6.5	8.55	9.84	10.39	10.24	9.51	8.43	7.25	6.2	5.44	5.04	4.92	4.95	5.01	5.02	4.96	4.85	4.7	4.49	4.16	3.65
8.53	8.23	7.38	6.13	4.68	3.29	2.21	1.62	1.52	1.81	2.24	2.59	2.67	2.45	2.02	1.55	1.17	0.92	0.77	0.58	0.24	-0.29	-1.01	-1.84	-2.68	-3.49	-4.25	-5	-5.74	-6.54	-7.43	-8.43	-9.57	-10.75	-11.8	-12.42	-12.33	-11.28	-9.24	-6.35	-2.97	0.53	3.77	6.5	8.55	9.84	10.39	10.24	9.51	8.43	7.25	6.2	5.44	5.04	4.92	4.95	5.01	5.02	4.96	4.85	4.7	4.49	4.16	3.65	2.94	2.09	1.18	0.32	-0.45	-1.1	-1.65	-2.14	-2.57	-2.98	-3.45	-4.05	-4.92	-6.14	-7.67	-9.32	-10.77	-11.63	-11.55	-10.33	-8	-4.82	-1.18	2.45	5.68	8.25	10.07	11.16	11.62	11.56	11.07	10.25	9.19	8.06	7.05	6.36	6.09	6.21	6.57	6.95	7.17	7.12	6.79	6.28	5.7	5.11	4.49	3.78	2.93	1.92	0.83	-0.22	-1.09	-1.76	-2.26	-2.74	-3.35	-4.18	-5.26	-6.55	-7.96	-9.41	-10.78	-11.86
2.94	2.09	1.18	0.32	-0.45	-1.1	-1.65	-2.14	-2.57	-2.98	-3.45	-4.05	-4.92	-6.14	-7.67	-9.32	-10.77	-11.63	-11.55	-10.33	-8	-4.82	-1.18	2.45	5.68	8.25	10.07	11.16	11.62	11.56	11.07	10.25	9.19	8.06	7.05	6.36	6.09	6.21	6.57	6.95	7.17	7.12	6.79	6.28	5.7	5.11	4.49	3.78	2.93	1.92	0.83	-0.22	-1.09	-1.76	-2.26	-2.74	-3.35	-4.18	-5.26	-6.55	-7.96	-9.41	-10.78	-11.86	-12.4	-12.08	-10.7	-8.27	-5.05	-1.49	1.91	4.72	6.75	7.96	8.38	8.11	7.21	5.8	4.09	2.36	0.91	-0.04	-0.39	-0.22	0.3	0.95	1.53	1.9	1.96	1.72	1.23	0.63	0.02	-0.52	-1.01	-1.58	-2.3	-3.22	-4.24	-5.18	-5.88	-6.27	-6.47	-6.66	-7.12	-8	-9.3	-10.81	-12.19	-13.03	-13	-11.92	-9.81	-6.88	-3.45	0.09	3.38	6.12	8.09	9.22	9.52	9.19	8.45	7.51	6.49	5.44	4.37	3.31
-12.4	-12.08	-10.7	-8.27	-5.05	-1.49	1.91	4.72	6.75	7.96	8.38	8.11	7.21	5.8	4.09	2.36	0.91	-0.04	-0.39	-0.22	0.3	0.95	1.53	1.9	1.96	1.72	1.23	0.63	0.02	-0.52	-1.01	-1.58	-2.3	-3.22	-4.24	-5.18	-5.88	-6.27	-6.47	-6.66	-7.12	-8	-9.3	-10.81	-12.19	-13.03	-13	-11.92	-9.81	-6.88	-3.45	0.09	3.38	6.12	8.09	9.22	9.52	9.19	8.45	7.51	6.49	5.44	4.37	3.31	2.39	1.72	1.37	1.29	1.34	1.37	1.3	1.13	0.94	0.81	0.75	0.72	0.61	0.31	-0.23	-0.98	-1.83	-2.65	-3.34	-3.88	-4.33	-4.8	-5.35	-6	-6.72	-7.49	-8.34	-9.3	-10.35	-11.29	-11.77	-11.38	-9.81	-7.03	-3.33	0.75	4.59	7.69	9.78	10.85	11.06	10.63	9.76	8.63	7.4	6.25	5.31	4.69	4.42	4.42	4.53	4.6	4.52	4.29	3.95	3.6	3.29	3.04	2.82	2.57	2.2	1.64	0.87	-0.09
2.39	1.72	1.37	1.29	1.34	1.37	1.3	1.13	0.94	0.81	0.75	0.72	0.61	0.31	-0.23	-0.98	-1.83	-2.65	-3.34	-3.88	-4.33	-4.8	-5.35	-6	-6.72	-7.49	-8.34	-9.3	-10.35	-11.29	-11.77	-11.38	-9.81	-7.03	-3.33	0.75	4.59	7.69	9.78	10.85	11.06	10.63	9.76	8.63	7.4	6.25	5.31	4.69	4.42	4.42	4.53	4.6	4.52	4.29	3.95	3.6	3.29	3.04	2.82	2.57	2.2	1.64	0.87	-0.09	-1.12	-2.09	-2.88	-3.43	-3.78	-4.06	-4.44	-5.04	-5.91	-6.97	-8.05	-8.94	-9.41	-9.22	-8.24	-6.43	-3.91	-0.93	2.18	5.08	7.52	9.34	10.46	10.86	10.56	9.64	8.24	6.58	4.97	3.68	2.88	2.61	2.79	3.25	3.79	4.26	4.54	4.58	4.37	3.92	3.27	2.43	1.44	0.33	-0.87	-2.06	-3.15	-4.04	-4.7	-5.13	-5.47	-5.85	-6.42	-7.27	-8.36	-9.62	-10.89	-12.02	-12.77	-12.91	-12.18	-10.46	-7.78	-4.41
-1.12	-2.09	-2.88	-3.43	-3.78	-4.06	-4.44	-5.04	-5.91	-6.97	-8.05	-8.94	-9.41	-9.22	-8.24	-6.43	-3.91	-0.93	2.18	5.08	7.52	9.34	10.46	10.86	10.56	9.64	8.24	6.58	4.97	3.68	2.88	2.61	2.79	3.25	3.79	4.26	4.54	4.58	4.37	3.92	3.27	2.43	1.44	0.33	-0.87	-2.06	-3.15	-4.04	-4.7	-5.13	-5.47	-5.85	-6.42	-7.27	-8.36	-9.62	-10.89	-12.02	-12.77	-12.91	-12.18	-10.46	-7.78	-4.41	-0.77	2.68	5.56	7.67	8.98	9.56	9.56	9.08	8.21	7.03	5.63	4.16	2.82	1.82	1.34	1.44	1.99	2.73	3.36	3.62	3.46	3	2.48	2.07	1.78	1.48	0.96	0.12	-1.03	-2.31	-3.48	-4.4	-5.05	-5.55	-6.07	-6.75	-7.65	-8.78	-10.07	-11.39	-12.53	-13.17	-12.94	-11.55	-8.93	-5.32	-1.21	2.78	6.12	8.54	10.04	10.81	11.04	10.84	10.2	9.12	7.7	6.22	5.01	4.35	4.33	4.86	5.66	6.46
-0.77	2.68	5.56	7.67	8.98	9.56	9.56	9.08	8.21	7.03	5.63	4.16	2.82	1.82	1.34	1.44	1.99	2.73	3.36	3.62	3.46	3	2.48	2.07	1.78	1.48	0.96	0.12	-1.03	-2.31	-3.48	-4.4	-5.05	-5.55	-6.07	-6.75	-7.65	-8.78	-10.07	-11.39	-12.53	-13.17	-12.94	-11.55	-8.93	-5.32	-1.21	2.78	6.12	8.54	10.04	10.81	11.04	10.84	10.2	9.12	7.7	6.22	5.01	4.35	4.33	4.86	5.66	6.46	7.05	7.33	7.31	7.05	6.68	6.29	6	5.84	5.76	5.69	5.5	5.09	4.43	3.51	2.32	0.88	-0.77	-2.57	-4.44	-6.31	-8.15	-9.91	-11.55	-13	-14.1	-14.61	-14.27	-12.89	-10.41	-6.99	-3.01	1.01	4.51	7.11	8.61	9.1	8.81	8	6.87	5.53	4.05	2.57	1.28	0.4	0.06	0.19	0.62	1.09	1.41	1.49	1.42	1.29	1.18	1.08	0.9	0.52	-0.12	-1.01	-2.06	-3.17	-4.2	-5.09	-5.8	-6.37
7.05	7.33	7.31	7.05	6.68	6.29	6	5.84	5.76	5.69	5.5	5.09	4.43	3.51	2.32	0.88	-0.77	-2.57	-4.44	-6.31	-8.15	-9.91	-11.55	-13	-14.1	-14.61	-14.27	-12.89	-10.41	-6.99	-3.01	1.01	4.51	7.11	8.61	9.1	8.81	8	6.87	5.53	4.05	2.57	1.28	0.4	0.06	0.19	0.62	1.09	1.41	1.49	1.42	1.29	1.18	1.08	0.9	0.52	-0.12	-1.01	-2.06	-3.17	-4.2	-5.09	-5.8	-6.37	-6.87	-7.39	-8.04	-8.84	-9.75	-10.61	-11.12	-11	-9.97	-7.96	-5.08	-1.63	1.92	5.14	7.67	9.35	10.19	10.32	9.88	9.02	7.87	6.54	5.17	3.92	2.93	2.31	2.06	2.11	2.35	2.69	3.08	3.47	3.81	3.96	3.75	3.03	1.79	0.14	-1.66	-3.34	-4.68	-5.65	-6.34	-6.98	-7.81	-8.96	-10.39	-11.85	-12.94	-13.16	-12.16	-9.82	-6.37	-2.3	1.74	5.18	7.66	9.07	9.54	9.28	8.51	7.42	6.17	4.88
-6.87	-7.39	-8.04	-8.84	-9.75	-10.61	-11.12	-11	-9.97	-7.96	-5.08	-1.63	1.92	5.14	7.67	9.35	10.19	10.32	9.88	9.02	7.87	6.54	5.17	3.92	2.93	2.31	2.06	2.11	2.35	2.69	3.08	3.47	3.81	3.96	3.75	3.03	1.79	0.14	-1.66	-3.34	-4.68	-5.65	-6.34	-6.98	-7.81	-8.96	-10.39	-11.85	-12.94	-13.16	-12.16	-9.82	-6.37	-2.3	1.74	5.18	7.66	9.07	9.54	9.28	8.51	7.42	6.17	4.88	3.7	2.77	2.16	1.87	1.8	1.81	1.78	1.65	1.46	1.24	1.04	0.85	0.59	0.2	-0.38	-1.15	-2.06	-3.03	-3.99	-4.93	-5.88	-6.93	-8.17	-9.61	-11.13	-12.49	-13.28	-13.15	-11.85	-9.43	-6.14	-2.44	1.24	4.54	7.23	9.22	10.45	10.9	10.59	9.61	8.16	6.55	5.08	4.01	3.41	3.19	3.14	3.02	2.74	2.32	1.91	1.67	1.66	1.78	1.82	1.56	0.88	-0.17	-1.4	-2.56	-3.49	-4.17	-4.7	-5.33
3.7	2.77	2.16	1.87	1.8	1.81	1.78	1.65	1.46	1.24	1.04	0.85	0.59	0.2	-0.38	-1.15	-2.06	-3.03	-3.99	-4.93	-5.88	-6.93	-8.17	-9.61	-11.13	-12.49	-13.28	-13.15	-11.85	-9.43	-6.14	-2.44	1.24	4.54	7.23	9.22	10.45	10.9	10.59	9.61	8.16	6.55	5.08	4.01	3.41	3.19	3.14	3.02	2.74	2.32	1.91	1.67	1.66	1.78	1.82	1.56	0.88	-0.17	-1.4	-2.56	-3.49	-4.17	-4.7	-5.33	-6.25	-7.59	-9.27	-11.03	-12.42	-13.01	-12.46	-10.67	-7.79	-4.16	-0.21	3.63	6.97	9.54	11.12	11.66	11.27	10.22	8.86	7.51	6.39	5.55	4.99	4.68	4.63	4.84	5.25	5.75	6.1	6.14	5.78	5.13	4.34	3.62	3.03	2.52	1.96	1.23	0.27	-0.86	-2.08	-3.3	-4.47	-5.57	-6.6	-7.58	-8.56	-9.64	-10.89	-12.33	-13.77	-14.88	-15.28	-14.64	-12.81	-9.92	-6.28	-2.31	1.6	5.11	8	10.09	11.3	11.59
-6.25	-7.59	-9.27	-11.03	-12.42	-13.01	-12.46	-10.67	-7.79	-4.16	-0.21	3.63	6.97	9.54	11.12	11.66	11.27	10.22	8.86	7.51	6.39	5.55	4.99	4.68	4.63	4.84	5.25	5.75	6.1	6.14	5.78	5.13	4.34	3.62	3.03	2.52	1.96	1.23	0.27	-0.86	-2.08	-3.3	-4.47	-5.57	-6.6	-7.58	-8.56	-9.64	-10.89	-12.33	-13.77	-14.88	-15.28	-14.64	-12.81	-9.92	-6.28	-2.31	1.6	5.11	8	10.09	11.3	11.59	11.04	9.81	8.17	6.46	5.03	4.15	3.9	4.19	4.82	5.54	6.12	6.47	6.52	6.26	5.68	4.86	3.91	3	2.28	1.81	1.54	1.29	0.93	0.39	-0.29	-0.99	-1.64	-2.24	-2.91	-3.79	-4.98	-6.46	-8.13	-9.81	-11.3	-12.38	-12.83	-12.43	-11.02	-8.57	-5.26	-1.45	2.37	5.71	8.22	9.75	10.35	10.19	9.48	8.41	7.09	5.69	4.36	3.33	2.77	2.77	3.27	4.08	4.92	5.56	5.88	5.86	5.58	5.15
11.04	9.81	8.17	6.46	5.03	4.15	3.9	4.19	4.82	5.54	6.12	6.47	6.52	6.26	5.68	4.86	3.91	3	2.28	1.81	1.54	1.29	0.93	0.39	-0.29	-0.99	-1.64	-2.24	-2.91	-3.79	-4.98	-6.46	-8.13	-9.81	-11.3	-12.38	-12.83	-12.43	-11.02	-8.57	-5.26	-1.45	2.37	5.71	8.22	9.75	10.35	10.19	9.48	8.41	7.09	5.69	4.36	3.33	2.77	2.77	3.27	4.08	4.92	5.56	5.88	5.86	5.58	5.15	4.65	4.13	3.54	2.83	1.91	0.76	-0.6	-2.09	-3.54	-4.82	-5.86	-6.66	-7.3	-7.87	-8.46	-9.18	-10.09	-11.17	-12.32	-13.26	-13.6	-12.98	-11.16	-8.19	-4.4	-0.36	3.35	6.26	8.19	9.16	9.39	9.09	8.44	7.53	6.47	5.41	4.54	4.05	4.03	4.43	5.1	5.82	6.45	6.9	7.17	7.27	7.15	6.79	6.16	5.29	4.26	3.13	1.93	0.68	-0.64	-2.02	-3.41	-4.72	-5.89	-6.85	-7.6	-8.21	-8.77	-9.45
4.65	4.13	3.54	2.83	1.91	0.76	-0.6	-2.09	-3.54	-4.82	-5.86	-6.66	-7.3	-7.87	-8.46	-9.18	-10.09	-11.17	-12.32	-13.26	-13.6	-12.98	-11.16	-8.19	-4.4	-0.36	3.35	6.26	8.19	9.16	9.39	9.09	8.44	7.53	6.47	5.41	4.54	4.05	4.03	4.43	5.1	5.82	6.45	6.9	7.17	7.27	7.15	6.79	6.16	5.29	4.26	3.13	1.93	0.68	-0.64	-2.02	-3.41	-4.72	-5.89	-6.85	-7.6	-8.21	-8.77	-9.45	-10.4	-11.73	-13.4	-15.18	-16.69	-17.47	-17.12	-15.46	-12.54	-8.66	-4.27	0.14	4.18	7.53	10.01	11.56	12.23	12.15	11.52	10.57	9.47	8.42	7.55	6.97	6.74	6.83	7.16	7.58	7.95	8.16	8.16	7.89	7.37	6.63	5.74	4.87	4.14	3.63	3.27	2.93	2.45	1.74	0.84	-0.15	-1.11	-2.01	-2.88	-3.78	-4.71	-5.63	-6.49	-7.28	-8.06	-8.93	-9.91	-10.87	-11.53	-11.49	-10.42	-8.2	-5	-1.21	2.6	5.95
-10.4	-11.73	-13.4	-15.18	-16.69	-17.47	-17.12	-15.46	-12.54	-8.66	-4.27	0.14	4.18	7.53	10.01	11.56	12.23	12.15	11.52	10.57	9.47	8.42	7.55	6.97	6.74	6.83	7.16	7.58	7.95	8.16	8.16	7.89	7.37	6.63	5.74	4.87	4.14	3.63	3.27	2.93	2.45	1.74	0.84	-0.15	-1.11	-2.01	-2.88	-3.78	-4.71	-5.63	-6.49	-7.28	-8.06	-8.93	-9.91	-10.87	-11.53	-11.49	-10.42	-8.2	-5	-1.21	2.6	5.95	8.48	10.07	10.72	10.53	9.65	8.23	6.5	4.68	3.05	1.8	1.02	0.7	0.73	1	1.39	1.81	2.16	2.39	2.44	2.32	2.08	1.7	1.16	0.39	-0.63	-1.82	-3.05	-4.13	-4.93	-5.47	-5.85	-6.27	-6.87	-7.73	-8.83	-10.09	-11.34	-12.41	-13.07	-13.07	-12.27	-10.62	-8.23	-5.35	-2.31	0.62	3.2	5.34	6.97	8.08	8.62	8.57	7.93	6.81	5.45	4.14	3.15	2.65	2.66	3.06	3.69	4.38	5.02	5.58
8.48	10.07	10.72	10.53	9.65	8.23	6.5	4.68	3.05	1.8	1.02	0.7	0.73	1	1.39	1.81	2.16	2.39	2.44	2.32	2.08	1.7	1.16	0.39	-0.63	-1.82	-3.05	-4.13	-4.93	-5.47	-5.85	-6.27	-6.87	-7.73	-8.83	-10.09	-11.34	-12.41	-13.07	-13.07	-12.27	-10.62	-8.23	-5.35	-2.31	0.62	3.2	5.34	6.97	8.08	8.62	8.57	7.93	6.81	5.45	4.14	3.15	2.65	2.66	3.06	3.69	4.38	5.02	5.58	6.01	6.26	6.22	5.78	4.89	3.6	2.05	0.48	-0.92	-2.03	-2.87	-3.52	-4.12	-4.75	-5.51	-6.44	-7.6	-9	-10.6	-12.22	-13.55	-14.19	-13.81	-12.23	-9.55	-6.11	-2.42	1.04	3.92	6.06	7.47	8.2	8.32	7.85	6.86	5.49	4	2.73	1.95	1.74	2	2.51	3.04	3.46	3.79	4.14	4.57	5.06	5.52	5.77	5.71	5.28	4.48	3.38	2.06	0.67	-0.65	-1.8	-2.74	-3.56	-4.47	-5.68	-7.3	-9.22
6.01	6.26	6.22	5.78	4.89	3.6	2.05	0.48	-0.92	-2.03	-2.87	-3.52	-4.12	-4.75	-5.51	-6.44	-7.6	-9	-10.6	-12.22	-13.55	-14.19	-13.81	-12.23	-9.55	-6.11	-2.42	1.04	3.92	6.06	7.47	8.2	8.32	7.85	6.86	5.49	4	2.73	1.95	1.74	2	2.51	3.04	3.46	3.79	4.14	4.57	5.06	5.52	5.77	5.71	5.28	4.48	3.38	2.06	0.67	-0.65	-1.8	-2.74	-3.56	-4.47	-5.68	-7.3	-9.22	-11.11	-12.48	-12.86	-12	-9.98	-7.07	-3.72	-0.31	2.87	5.62	7.77	9.15	9.58	9.02	7.58	5.56	3.38	1.42	-0.07	-0.98	-1.39	-1.46	-1.37	-1.32	-1.44	-1.75	-2.17	-2.51	-2.51	-1.98	-0.88	0.7	2.52	4.31	5.85	7.05	7.91	8.46	8.73	8.7	8.31	7.51	6.29	4.7	2.87	1.07	-0.37	-1.08	-0.78	0.59	2.83	5.51	8.16	10.39	12.01	13	13.36	13.09	12.15	10.51	8.33	5.92	3.72	2.12
-11.11	-12.48	-12.86	-12	-9.98	-7.07	-3.72	-0.31	2.87	5.62	7.77	9.15	9.58	9.02	7.58	5.56	3.38	1.42	-0.07	-0.98	-1.39	-1.46	-1.37	-1.32	-1.44	-1.75	-2.17	-2.51	-2.51	-1.98	-0.88	0.7	2.52	4.31	5.85	7.05	7.91	8.46	8.73	8.7	8.31	7.51	6.29	4.7	2.87	1.07	-0.37	-1.08	-0.78	0.59	2.83	5.51	8.16	10.39	12.01	13	13.36	13.09	12.15	10.51	8.33	5.92	3.72	2.12	1.29	1.17	1.52	2.02	2.46	2.71	2.75	2.57	2.19	1.62	0.93	0.17	-0.62	-1.45	-2.34	-3.33	-4.38	-5.41	-6.35	-7.22	-8.09	-9.13	-10.47	-12.17	-14.12	-16.09	-17.8	-18.93	-19.19	-18.36	-16.35	-13.22	-9.23	-4.8	-0.43	3.43	6.41	8.34	9.2	9.1	8.24	6.9	5.37	3.9	2.68	1.81	1.32	1.19	1.39	1.9	2.66	3.54	4.35	4.84	4.81	4.18	3.01	1.49	-0.16	-1.73	-3.1	-4.21	-5.11	-5.88
1.29	1.17	1.52	2.02	2.46	2.71	2.75	2.57	2.19	1.62	0.93	0.17	-0.62	-1.45	-2.34	-3.33	-4.38	-5.41	-6.35	-7.22	-8.09	-9.13	-10.47	-12.17	-14.12	-16.09	-17.8	-18.93	-19.19	-18.36	-16.35	-13.22	-9.23	-4.8	-0.43	3.43	6.41	8.34	9.2	9.1	8.24	6.9	5.37	3.9	2.68	1.81	1.32	1.19	1.39	1.9	2.66	3.54	4.35	4.84	4.81	4.18	3.01	1.49	-0.16	-1.73	-3.1	-4.21	-5.11	-5.88	-6.63	-7.53	-8.65	-9.99	-11.35	-12.35	-12.54	-11.53	-9.16	-5.64	-1.45	2.7	6.15	8.39	9.17	8.54	6.74	4.15	1.2	-1.81	-4.69	-7.42	-10.05	-12.59	-14.95	-16.92	-18.22	-18.66	-18.14	-16.74	-14.57	-11.82	-8.78	-5.82	-3.43	-2.06	-2	-3.22	-5.34	-7.79	-9.97	-11.42	-11.92	-11.52	-10.42	-8.96	-7.48	-6.26	-5.42	-4.86	-4.32	-3.42	-1.87	0.45	3.42	6.69	9.83	12.38	14.05	14.69	14.34	13.2	11.58	9.86
-6.63	-7.53	-8.65	-9.99	-11.35	-12.35	-12.54	-11.53	-9.16	-5.64	-1.45	2.7	6.15	8.39	9.17	8.54	6.74	4.15	1.2	-1.81	-4.69	-7.42	-10.05	-12.59	-14.95	-16.92	-18.22	-18.66	-18.14	-16.74	-14.57	-11.82	-8.78	-5.82	-3.43	-2.06	-2	-3.22	-5.34	-7.79	-9.97	-11.42	-11.92	-11.52	-10.42	-8.96	-7.48	-6.26	-5.42	-4.86	-4.32	-3.42	-1.87	0.45	3.42	6.69	9.83	12.38	14.05	14.69	14.34	13.2	11.58	9.86	8.43	7.66	7.83	9.06	11.2	13.87	16.47	18.39	19.19	18.74	17.3	15.36	13.43	11.88	10.8	10.05	9.37	8.53	7.41	5.97	4.19	2.06	-0.39	-3.05	-5.61	-7.67	-8.76	-8.61	-7.19	-4.83	-2.02	0.69	2.91	4.47	5.37	5.7	5.57	4.99	3.98	2.59	0.98	-0.59	-1.82	-2.51	-2.58	-2.12	-1.37	-0.58	0.03	0.32	0.23	-0.23	-1.02	-2.08	-3.35	-4.77	-6.3	-7.92	-9.61	-11.35	-13.06	-14.58	-15.64	-15.93
8.43	7.66	7.83	9.06	11.2	13.87	16.47	18.39	19.19	18.74	17.3	15.36	13.43	11.88	10.8	10.05	9.37	8.53	7.41	5.97	4.19	2.06	-0.39	-3.05	-5.61	-7.67	-8.76	-8.61	-7.19	-4.83	-2.02	0.69	2.91	4.47	5.37	5.7	5.57	4.99	3.98	2.59	0.98	-0.59	-1.82	-2.51	-2.58	-2.12	-1.37	-0.58	0.03	0.32	0.23	-0.23	-1.02	-2.08	-3.35	-4.77	-6.3	-7.92	-9.61	-11.35	-13.06	-14.58	-15.64	-15.93	-15.18	-13.31	-10.47	-7	-3.36	0.02	2.84	4.93	6.17	6.48	5.79	4.06	1.39	-1.86	-5.18	-7.93	-9.55	-9.68	-8.27	-5.55	-1.99	1.87	5.56	8.76	11.3	13.14	14.25	14.62	14.23	13.09	11.29	8.96	6.24	3.27	0.2	-2.72	-5.17	-6.73	-7.08	-6.09	-3.92	-0.99	2.12	4.89	6.96	8.17	8.5	8.02	6.88	5.22	3.3	1.4	-0.19	-1.28	-1.81	-1.88	-1.69	-1.45	-1.32	-1.35	-1.51	-1.69	-1.77	-1.67
-15.18	-13.31	-10.47	-7	-3.36	0.02	2.84	4.93	6.17	6.48	5.79	4.06	1.39	-1.86	-5.18	-7.93	-9.55	-9.68	-8.27	-5.55	-1.99	1.87	5.56	8.76	11.3	13.14	14.25	14.62	14.23	13.09	11.29	8.96	6.24	3.27	0.2	-2.72	-5.17	-6.73	-7.08	-6.09	-3.92	-0.99	2.12	4.89	6.96	8.17	8.5	8.02	6.88	5.22	3.3	1.4	-0.19	-1.28	-1.81	-1.88	-1.69	-1.45	-1.32	-1.35	-1.51	-1.69	-1.77	-1.67	-1.38	-0.98	-0.62	-0.44	-0.57	-1.15	-2.2	-3.73	-5.59	-7.52	-9.07	-9.77	-9.26	-7.42	-4.52	-1.05	2.38	5.29	7.43	8.78	9.45	9.55	9.17	8.36	7.2	5.83	4.42	3.13	2.07	1.24	0.58	0.04	-0.35	-0.57	-0.6	-0.53	-0.52	-0.76	-1.38	-2.38	-3.61	-4.88	-6.06	-7.15	-8.25	-9.45	-10.68	-11.64	-11.92	-11.1	-9.01	-5.77	-1.8	2.33	6.09	9.1	11.14	12.18	12.29	11.59	10.29	8.61	6.82	5.18
-1.38	-0.98	-0.62	-0.44	-0.57	-1.15	-2.2	-3.73	-5.59	-7.52	-9.07	-9.77	-9.26	-7.42	-4.52	-1.05	2.38	5.29	7.43	8.78	9.45	9.55	9.17	8.36	7.2	5.83	4.42	3.13	2.07	1.24	0.58	0.04	-0.35	-0.57	-0.6	-0.53	-0.52	-0.76	-1.38	-2.38	-3.61	-4.88	-6.06	-7.15	-8.25	-9.45	-10.68	-11.64	-11.92	-11.1	-9.01	-5.77	-1.8	2.33	6.09	9.1	11.14	12.18	12.29	11.59	10.29	8.61	6.82	5.18	3.95	3.28	3.23	3.73	4.55	5.44	6.13	6.46	6.4	6	5.4	4.71	3.99	3.28	2.57	1.83	0.96	-0.13	-1.59	-3.46	-5.69	-8.04	-10.11	-11.46	-11.71	-10.66	-8.36	-5.13	-1.39	2.39	5.8	8.6	10.7	12.09	12.83	12.94	12.5	11.61	10.42	9.13	7.96	7.02	6.36	5.93	5.63	5.37	5.1	4.81	4.53	4.3	4.1	3.89	3.53	2.89	1.88	0.55	-0.95	-2.36	-3.45	-4.09	-4.31	-4.3	-4.34	-4.65
3.95	3.28	3.23	3.73	4.55	5.44	6.13	6.46	6.4	6	5.4	4.71	3.99	3.28	2.57	1.83	0.96	-0.13	-1.59	-3.46	-5.69	-8.04	-10.11	-11.46	-11.71	-10.66	-8.36	-5.13	-1.39	2.39	5.8	8.6	10.7	12.09	12.83	12.94	12.5	11.61	10.42	9.13	7.96	7.02	6.36	5.93	5.63	5.37	5.1	4.81	4.53	4.3	4.1	3.89	3.53	2.89	1.88	0.55	-0.95	-2.36	-3.45	-4.09	-4.31	-4.3	-4.34	-4.65	-5.36	-6.43	-7.79	-9.3	-10.81	-12.14	-13.04	-13.2	-12.36	-10.39	-7.41	-3.77	0.01	3.46	6.21	8.1	9.14	9.4	9.01	8.08	6.77	5.31	3.93	2.84	2.18	1.97	2.12	2.45	2.8	3.02	3.07	2.97	2.79	2.6	2.41	2.17	1.8	1.22	0.46	-0.39	-1.19	-1.84	-2.29	-2.61	-2.92	-3.36	-4.01	-4.86	-5.82	-6.78	-7.67	-8.51	-9.4	-10.41	-11.48	-12.38	-12.77	-12.3	-10.75	-8.19	-4.91	-1.4	1.89	4.64
-5.36	-6.43	-7.79	-9.3	-10.81	-12.14	-13.04	-13.2	-12.36	-10.39	-7.41	-3.77	0.01	3.46	6.21	8.1	9.14	9.4	9.01	8.08	6.77	5.31	3.93	2.84	2.18	1.97	2.12	2.45	2.8	3.02	3.07	2.97	2.79	2.6	2.41	2.17	1.8	1.22	0.46	-0.39	-1.19	-1.84	-2.29	-2.61	-2.92	-3.36	-4.01	-4.86	-5.82	-6.78	-7.67	-8.51	-9.4	-10.41	-11.48	-12.38	-12.77	-12.3	-10.75	-8.19	-4.91	-1.4	1.89	4.64	6.68	7.94	8.49	8.36	7.67	6.53	5.13	3.72	2.53	1.76	1.52	1.76	2.31	2.94	3.44	3.67	3.62	3.38	3.05	2.76	2.56	2.45	2.34	2.15	1.77	1.15	0.29	-0.77	-1.93	-3.1	-4.19	-5.11	-5.84	-6.38	-6.79	-7.16	-7.63	-8.26	-9.04	-9.78	-10.2	-10	-8.95	-7.02	-4.35	-1.25	1.91	4.75	6.96	8.38	8.91	8.59	7.58	6.07	4.29	2.5	0.9	-0.37	-1.2	-1.61	-1.63	-1.39	-1.03	-0.68
6.68	7.94	8.49	8.36	7.67	6.53	5.13	3.72	2.53	1.76	1.52	1.76	2.31	2.94	3.44	3.67	3.62	3.38	3.05	2.76	2.56	2.45	2.34	2.15	1.77	1.15	0.29	-0.77	-1.93	-3.1	-4.19	-5.11	-5.84	-6.38	-6.79	-7.16	-7.63	-8.26	-9.04	-9.78	-10.2	-10	-8.95	-7.02	-4.35	-1.25	1.91	4.75	6.96	8.38	8.91	8.59	7.58	6.07	4.29	2.5	0.9	-0.37	-1.2	-1.61	-1.63	-1.39	-1.03	-0.68	-0.42	-0.32	-0.35	-0.5	-0.73	-1.01	-1.38	-1.85	-2.42	-3.04	-3.62	-4.06	-4.3	-4.35	-4.27	-4.2	-4.24	-4.47	-4.92	-5.57	-6.39	-7.32	-8.2	-8.82	-8.92	-8.27	-6.75	-4.45	-1.62	1.35	4.08	6.28	7.78	8.55	8.61	8.04	6.92	5.44	3.78	2.18	0.79	-0.31	-1.12	-1.7	-2.1	-2.33	-2.37	-2.16	-1.72	-1.13	-0.53	-0.12	-0.05	-0.42	-1.22	-2.32	-3.57	-4.81	-5.91	-6.8	-7.45	-7.89	-8.15	-8.31
-0.42	-0.32	-0.35	-0.5	-0.73	-1.01	-1.38	-1.85	-2.42	-3.04	-3.62	-4.06	-4.3	-4.35	-4.27	-4.2	-4.24	-4.47	-4.92	-5.57	-6.39	-7.32	-8.2	-8.82	-8.92	-8.27	-6.75	-4.45	-1.62	1.35	4.08	6.28	7.78	8.55	8.61	8.04	6.92	5.44	3.78	2.18	0.79	-0.31	-1.12	-1.7	-2.1	-2.33	-2.37	-2.16	-1.72	-1.13	-0.53	-0.12	-0.05	-0.42	-1.22	-2.32	-3.57	-4.81	-5.91	-6.8	-7.45	-7.89	-8.15	-8.31	-8.47	-8.74	-9.2	-9.8	-10.33	-10.49	-9.95	-8.49	-6.1	-2.97	0.51	3.92	6.87	9.11	10.48	10.98	10.68	9.73	8.34	6.75	5.2	3.88	2.95	2.47	2.38	2.52	2.63	2.47	1.91	1.01	0.04	-0.72	-1.1	-1.15	-1.13	-1.33	-1.95	-2.97	-4.18	-5.28	-6.04	-6.36	-6.32	-6.1	-5.92	-5.94	-6.22	-6.75	-7.4	-7.96	-8.17	-7.76	-6.51	-4.33	-1.34	2.15	5.69	8.78	11.09	12.45	12.91	12.6	11.69	10.26
-8.47	-8.74	-9.2	-9.8	-10.33	-10.49	-9.95	-8.49	-6.1	-2.97	0.51	3.92	6.87	9.11	10.48	10.98	10.68	9.73	8.34	6.75	5.2	3.88	2.95	2.47	2.38	2.52	2.63	2.47	1.91	1.01	0.04	-0.72	-1.1	-1.15	-1.13	-1.33	-1.95	-2.97	-4.18	-5.28	-6.04	-6.36	-6.32	-6.1	-5.92	-5.94	-6.22	-6.75	-7.4	-7.96	-8.17	-7.76	-6.51	-4.33	-1.34	2.15	5.69	8.78	11.09	12.45	12.91	12.6	11.69	10.26	8.43	6.34	4.27	2.56	1.48	1.17	1.53	2.3	3.13	3.77	4.1	4.14	4.01	3.8	3.57	3.3	2.98	2.56	2.05	1.44	0.74	-0.06	-0.94	-1.9	-2.91	-3.96	-5.09	-6.36	-7.81	-9.44	-11.11	-12.52	-13.34	-13.23	-12.02	-9.75	-6.64	-3.05	0.64	4.08	6.98	9.19	10.61	11.21	11.02	10.16	8.81	7.18	5.56	4.17	3.18	2.64	2.49	2.62	2.88	3.19	3.49	3.78	4.02	4.18	4.15	3.85	3.2	2.21
8.43	6.34	4.27	2.56	1.48	1.17	1.53	2.3	3.13	3.77	4.1	4.14	4.01	3.8	3.57	3.3	2.98	2.56	2.05	1.44	0.74	-0.06	-0.94	-1.9	-2.91	-3.96	-5.09	-6.36	-7.81	-9.44	-11.11	-12.52	-13.34	-13.23	-12.02	-9.75	-6.64	-3.05	0.64	4.08	6.98	9.19	10.61	11.21	11.02	10.16	8.81	7.18	5.56	4.17	3.18	2.64	2.49	2.62	2.88	3.19	3.49	3.78	4.02	4.18	4.15	3.85	3.2	2.21	0.92	-0.57	-2.14	-3.7	-5.19	-6.57	-7.86	-9.09	-10.32	-11.55	-12.7	-13.57	-13.91	-13.42	-11.92	-9.33	-5.82	-1.72	2.51	6.35	9.38	11.29	12.02	11.73	10.73	9.43	8.15	7.1	6.36	5.88	5.57	5.37	5.23	5.12	5.05	4.98	4.85	4.57	4.04	3.2	2.1	0.86	-0.35	-1.37	-2.16	-2.75	-3.26	-3.8	-4.46	-5.28	-6.3	-7.54	-8.96	-10.39	-11.53	-11.96	-11.3	-9.35	-6.19	-2.23	1.95	5.76	8.81	10.95
0.92	-0.57	-2.14	-3.7	-5.19	-6.57	-7.86	-9.09	-10.32	-11.55	-12.7	-13.57	-13.91	-13.42	-11.92	-9.33	-5.82	-1.72	2.51	6.35	9.38	11.29	12.02	11.73	10.73	9.43	8.15	7.1	6.36	5.88	5.57	5.37	5.23	5.12	5.05	4.98	4.85	4.57	4.04	3.2	2.1	0.86	-0.35	-1.37	-2.16	-2.75	-3.26	-3.8	-4.46	-5.28	-6.3	-7.54	-8.96	-10.39	-11.53	-11.96	-11.3	-9.35	-6.19	-2.23	1.95	5.76	8.81	10.95	12.26	12.89	13.01	12.71	12.06	11.18	10.22	9.37	8.69	8.15	7.61	6.95	6.11	5.17	4.29	3.65	3.29	3.17	3.17	3.13	2.92	2.44	1.64	0.55	-0.75	-2.13	-3.44	-4.55	-5.43	-6.13	-6.81	-7.66	-8.86	-10.44	-12.22	-13.81	-14.68	-14.35	-12.57	-9.44	-5.42	-1.14	2.76	5.83	7.86	8.86	8.95	8.28	6.99	5.24	3.23	1.21	-0.61	-2.03	-2.93	-3.26	-3.06	-2.41	-1.48	-0.42	0.61	1.54	2.32	2.93
12.26	12.89	13.01	12.71	12.06	11.18	10.22	9.37	8.69	8.15	7.61	6.95	6.11	5.17	4.29	3.65	3.29	3.17	3.17	3.13	2.92	2.44	1.64	0.55	-0.75	-2.13	-3.44	-4.55	-5.43	-6.13	-6.81	-7.66	-8.86	-10.44	-12.22	-13.81	-14.68	-14.35	-12.57	-9.44	-5.42	-1.14	2.76	5.83	7.86	8.86	8.95	8.28	6.99	5.24	3.23	1.21	-0.61	-2.03	-2.93	-3.26	-3.06	-2.41	-1.48	-0.42	0.61	1.54	2.32	2.93	3.28	3.27	2.79	1.83	0.52	-0.89	-2.15	-3.13	-3.86	-4.51	-5.27	-6.19	-7.15	-7.98	-8.57	-8.95	-9.35	-10.01	-11.06	-12.4	-13.7	-14.5	-14.4	-13.12	-10.67	-7.24	-3.22	0.89	4.64	7.64	9.69	10.77	11.02	10.63	9.8	8.7	7.5	6.37	5.49	4.98	4.85	4.98	5.14	5.15	4.91	4.48	4.03	3.72	3.63	3.71	3.79	3.65	3.13	2.19	0.95	-0.4	-1.63	-2.59	-3.26	-3.74	-4.17	-4.66	-5.31	-6.17
3.28	3.27	2.79	1.83	0.52	-0.89	-2.15	-3.13	-3.86	-4.51	-5.27	-6.19	-7.15	-7.98	-8.57	-8.95	-9.35	-10.01	-11.06	-12.4	-13.7	-14.5	-14.4	-13.12	-10.67	-7.24	-3.22	0.89	4.64	7.64	9.69	10.77	11.02	10.63	9.8	8.7	7.5	6.37	5.49	4.98	4.85	4.98	5.14	5.15	4.91	4.48	4.03	3.72	3.63	3.71	3.79	3.65	3.13	2.19	0.95	-0.4	-1.63	-2.59	-3.26	-3.74	-4.17	-4.66	-5.31	-6.17	-7.24	-8.46	-9.66	-10.49	-10.51	-9.32	-6.76	-3.06	1.23	5.42	8.9	11.37	12.79	13.34	13.31	12.94	12.42	11.91	11.5	11.2	10.92	10.47	9.62	8.28	6.49	4.47	2.49	0.79	-0.57	-1.64	-2.55	-3.4	-4.19	-4.86	-5.29	-5.38	-5.08	-4.41	-3.48	-2.52	-1.84	-1.78	-2.59	-4.33	-6.83	-9.67	-12.32	-14.21	-14.96	-14.37	-12.56	-9.81	-6.56	-3.25	-0.28	2.06	3.59	4.26	4.1	3.26	2.01	0.63	-0.58	-1.44
-7.24	-8.46	-9.66	-10.49	-10.51	-9.32	-6.76	-3.06	1.23	5.42	8.9	11.37	12.79	13.34	13.31	12.94	12.42	11.91	11.5	11.2	10.92	10.47	9.62	8.28	6.49	4.47	2.49	0.79	-0.57	-1.64	-2.55	-3.4	-4.19	-4.86	-5.29	-5.38	-5.08	-4.41	-3.48	-2.52	-1.84	-1.78	-2.59	-4.33	-6.83	-9.67	-12.32	-14.21	-14.96	-14.37	-12.56	-9.81	-6.56	-3.25	-0.28	2.06	3.59	4.26	4.1	3.26	2.01	0.63	-0.58	-1.44	-1.86	-1.86	-1.44	-0.63	0.53	1.94	3.38	4.51	4.99	4.6	3.29	1.26	-1.13	-3.46	-5.34	-6.55	-7.06	-7.04	-6.77	-6.56	-6.65	-7.12	-7.85	-8.61	-9.04	-8.85	-7.85	-5.95	-3.27	0	3.52	6.93	9.88	12.07	13.37	13.8	13.5	12.76	11.85	11.03	10.48	10.29	10.48	11.01	11.78	12.63	13.26	13.35	12.58	10.77	8	4.55	0.88	-2.56	-5.48	-7.83	-9.75	-11.47	-13.19	-15.05	-17.1	-19.36	-21.83	-24.41
-1.86	-1.86	-1.44	-0.63	0.53	1.94	3.38	4.51	4.99	4.6	3.29	1.26	-1.13	-3.46	-5.34	-6.55	-7.06	-7.04	-6.77	-6.56	-6.65	-7.12	-7.85	-8.61	-9.04	-8.85	-7.85	-5.95	-3.27	0	3.52	6.93	9.88	12.07	13.37	13.8	13.5	12.76	11.85	11.03	10.48	10.29	10.48	11.01	11.78	12.63	13.26	13.35	12.58	10.77	8	4.55	0.88	-2.56	-5.48	-7.83	-9.75	-11.47	-13.19	-15.05	-17.1	-19.36	-21.83	-24.41	-26.94	-29.07	-30.45	-30.72	-29.73	-27.57	-24.56	-21.21	-18.06	-15.62	-14.26	-14.23	-15.63	-18.44	-22.36	-26.81	-30.86	-33.37	-33.29	-30.06	-23.81	-15.38	-6.1	2.72	10.09	15.54	19.08	20.97	21.53	21.06	19.89	18.34	16.78	15.55	14.82	14.6	14.69	14.75	14.45	13.52	11.9	9.68	7.17	4.79	2.99	2.13	2.4	3.77	6.06	8.96	12.13	15.21	17.88	19.87	20.97	21.13	20.41	19.01	17.21	15.28	13.47	11.95	10.84	10.2
-26.94	-29.07	-30.45	-30.72	-29.73	-27.57	-24.56	-21.21	-18.06	-15.62	-14.26	-14.23	-15.63	-18.44	-22.36	-26.81	-30.86	-33.37	-33.29	-30.06	-23.81	-15.38	-6.1	2.72	10.09	15.54	19.08	20.97	21.53	21.06	19.89	18.34	16.78	15.55	14.82	14.6	14.69	14.75	14.45	13.52	11.9	9.68	7.17	4.79	2.99	2.13	2.4	3.77	6.06	8.96	12.13	15.21	17.88	19.87	20.97	21.13	20.41	19.01	17.21	15.28	13.47	11.95	10.84	10.2	10	10.11	10.32	10.37	10.07	9.33	8.22	6.95	5.72	4.67	3.85	3.24	2.75	2.29	1.82	1.35	0.92	0.59	0.35	0.14	-0.13	-0.57	-1.27	-2.25	-3.49	-4.95	-6.59	-8.31	-9.93	-11.14	-11.55	-10.83	-8.8	-5.62	-1.71	2.33	5.93	8.74	10.63	11.67	12.01	11.81	11.22	10.38	9.52	8.82	8.45	8.39	8.52	8.63	8.54	8.21	7.69	7.11	6.57	6.07	5.55	4.92	4.12	3.12	1.97	0.76	-0.45	-1.54
10	10.11	10.32	10.37	10.07	9.33	8.22	6.95	5.72	4.67	3.85	3.24	2.75	2.29	1.82	1.35	0.92	0.59	0.35	0.14	-0.13	-0.57	-1.27	-2.25	-3.49	-4.95	-6.59	-8.31	-9.93	-11.14	-11.55	-10.83	-8.8	-5.62	-1.71	2.33	5.93	8.74	10.63	11.67	12.01	11.81	11.22	10.38	9.52	8.82	8.45	8.39	8.52	8.63	8.54	8.21	7.69	7.11	6.57	6.07	5.55	4.92	4.12	3.12	1.97	0.76	-0.45	-1.54	-2.46	-3.16	-3.63	-3.93	-4.14	-4.36	-4.65	-5.04	-5.52	-6.11	-6.88	-7.94	-9.34	-11.03	-12.77	-14.16	-14.75	-14.17	-12.29	-9.28	-5.55	-1.66	1.84	4.56	6.3	7.11	7.17	6.73	6.03	5.25	4.49	3.84	3.35	3.09	3.06	3.21	3.4	3.43	3.12	2.39	1.28	-0.05	-1.4	-2.67	-3.83	-4.97	-6.18	-7.43	-8.56	-9.35	-9.59	-9.2	-8.25	-6.94	-5.51	-4.17	-3.07	-2.36	-2.14	-2.47	-3.3	-4.41	-5.45	-6.03
-2.46	-3.16	-3.63	-3.93	-4.14	-4.36	-4.65	-5.04	-5.52	-6.11	-6.88	-7.94	-9.34	-11.03	-12.77	-14.16	-14.75	-14.17	-12.29	-9.28	-5.55	-1.66	1.84	4.56	6.3	7.11	7.17	6.73	6.03	5.25	4.49	3.84	3.35	3.09	3.06	3.21	3.4	3.43	3.12	2.39	1.28	-0.05	-1.4	-2.67	-3.83	-4.97	-6.18	-7.43	-8.56	-9.35	-9.59	-9.2	-8.25	-6.94	-5.51	-4.17	-3.07	-2.36	-2.14	-2.47	-3.3	-4.41	-5.45	-6.03	-5.83	-4.73	-2.8	-0.29	2.48	5.22	7.71	9.79	11.36	12.36	12.77	12.63	12.05	11.17	10.18	9.25	8.51	8.05	7.88	7.95	8.17	8.42	8.55	8.46	8.13	7.6	6.97	6.38	5.9	5.55	5.25	4.87	4.3	3.5	2.51	1.45	0.44	-0.47	-1.29	-2.07	-2.89	-3.79	-4.82	-5.99	-7.32	-8.76	-10.19	-11.36	-11.95	-11.67	-10.4	-8.24	-5.48	-2.53	0.25	2.59	4.38	5.63	6.37	6.65	6.48	5.91	5.04	4.04
-5.83	-4.73	-2.8	-0.29	2.48	5.22	7.71	9.79	11.36	12.36	12.77	12.63	12.05	11.17	10.18	9.25	8.51	8.05	7.88	7.95	8.17	8.42	8.55	8.46	8.13	7.6	6.97	6.38	5.9	5.55	5.25	4.87	4.3	3.5	2.51	1.45	0.44	-0.47	-1.29	-2.07	-2.89	-3.79	-4.82	-5.99	-7.32	-8.76	-10.19	-11.36	-11.95	-11.67	-10.4	-8.24	-5.48	-2.53	0.25	2.59	4.38	5.63	6.37	6.65	6.48	5.91	5.04	4.04	3.09	2.38	2.01	1.97	2.18	2.46	2.67	2.77	2.76	2.74	2.76	2.79	2.73	2.47	1.96	1.28	0.58	-0.04	-0.55	-1.04	-1.64	-2.41	-3.32	-4.25	-5.1	-5.85	-6.54	-7.24	-8.01	-8.87	-9.78	-10.71	-11.59	-12.3	-12.64	-12.35	-11.27	-9.35	-6.75	-3.77	-0.77	1.96	4.19	5.79	6.73	7.02	6.72	5.99	5.02	4	3.1	2.43	2.05	1.95	2.07	2.33	2.64	2.91	3.09	3.18	3.2	3.16	3.06	2.86
3.09	2.38	2.01	1.97	2.18	2.46	2.67	2.77	2.76	2.74	2.76	2.79	2.73	2.47	1.96	1.28	0.58	-0.04	-0.55	-1.04	-1.64	-2.41	-3.32	-4.25	-5.1	-5.85	-6.54	-7.24	-8.01	-8.87	-9.78	-10.71	-11.59	-12.3	-12.64	-12.35	-11.27	-9.35	-6.75	-3.77	-0.77	1.96	4.19	5.79	6.73	7.02	6.72	5.99	5.02	4	3.1	2.43	2.05	1.95	2.07	2.33	2.64	2.91	3.09	3.18	3.2	3.16	3.06	2.86	2.51	1.97	1.24	0.31	-0.79	-2.02	-3.3	-4.51	-5.51	-6.21	-6.58	-6.7	-6.72	-6.81	-7.08	-7.61	-8.38	-9.34	-10.37	-11.31	-11.89	-11.83	-10.91	-9.06	-6.41	-3.27	-0.05	2.87	5.21	6.83	7.68	7.84	7.46	6.71	5.8	4.91	4.22	3.85	3.85	4.26	5	5.91	6.78	7.37	7.52	7.18	6.47	5.56	4.66	3.87	3.17	2.47	1.66	0.69	-0.41	-1.55	-2.63	-3.61	-4.51	-5.43	-6.43	-7.53	-8.66	-9.72
2.51	1.97	1.24	0.31	-0.79	-2.02	-3.3	-4.51	-5.51	-6.21	-6.58	-6.7	-6.72	-6.81	-7.08	-7.61	-8.38	-9.34	-10.37	-11.31	-11.89	-11.83	-10.91	-9.06	-6.41	-3.27	-0.05	2.87	5.21	6.83	7.68	7.84	7.46	6.71	5.8	4.91	4.22	3.85	3.85	4.26	5	5.91	6.78	7.37	7.52	7.18	6.47	5.56	4.66	3.87	3.17	2.47	1.66	0.69	-0.41	-1.55	-2.63	-3.61	-4.51	-5.43	-6.43	-7.53	-8.66	-9.72	-10.6	-11.21	-11.49	-11.33	-10.58	-9.12	-6.89	-4.02	-0.79	2.36	5.11	7.23	8.7	9.6	10.02	9.99	9.54	8.66	7.46	6.11	4.86	3.94	3.5	3.54	3.92	4.41	4.78	4.87	4.67	4.23	3.65	2.94	2.07	0.96	-0.46	-2.1	-3.79	-5.28	-6.42	-7.16	-7.62	-8.05	-8.69	-9.74	-11.26	-13.13	-15.08	-16.72	-17.62	-17.38	-15.77	-12.79	-8.68	-3.93	0.85	5.1	8.44	10.71	12.01	12.56	12.6	12.33	11.89	11.36
-10.6	-11.21	-11.49	-11.33	-10.58	-9.12	-6.89	-4.02	-0.79	2.36	5.11	7.23	8.7	9.6	10.02	9.99	9.54	8.66	7.46	6.11	4.86	3.94	3.5	3.54	3.92	4.41	4.78	4.87	4.67	4.23	3.65	2.94	2.07	0.96	-0.46	-2.1	-3.79	-5.28	-6.42	-7.16	-7.62	-8.05	-8.69	-9.74	-11.26	-13.13	-15.08	-16.72	-17.62	-17.38	-15.77	-12.79	-8.68	-3.93	0.85	5.1	8.44	10.71	12.01	12.56	12.6	12.33	11.89	11.36	10.79	10.2	9.59	8.94	8.25	7.53	6.81	6.15	5.56	5.04	4.53	3.94	3.19	2.2	0.96	-0.46	-1.93	-3.26	-4.31	-4.99	-5.43	-5.84	-6.5	-7.63	-9.29	-11.33	-13.44	-15.14	-15.95	-15.52	-13.71	-10.7	-6.96	-3.05	0.49	3.36	5.51	7.05	8.07	8.57	8.45	7.6	6.09	4.2	2.33	0.87	0	-0.32	-0.3	-0.22	-0.21	-0.26	-0.27	-0.15	0.08	0.26	0.15	-0.42	-1.47	-2.81	-4.16	-5.27	-6.03	-6.49
10.79	10.2	9.59	8.94	8.25	7.53	6.81	6.15	5.56	5.04	4.53	3.94	3.19	2.2	0.96	-0.46	-1.93	-3.26	-4.31	-4.99	-5.43	-5.84	-6.5	-7.63	-9.29	-11.33	-13.44	-15.14	-15.95	-15.52	-13.71	-10.7	-6.96	-3.05	0.49	3.36	5.51	7.05	8.07	8.57	8.45	7.6	6.09	4.2	2.33	0.87	0	-0.32	-0.3	-0.22	-0.21	-0.26	-0.27	-0.15	0.08	0.26	0.15	-0.42	-1.47	-2.81	-4.16	-5.27	-6.03	-6.49	-6.79	-7.12	-7.64	-8.45	-9.57	-10.94	-12.36	-13.5	-13.96	-13.4	-11.64	-8.79	-5.17	-1.25	2.5	5.69	8.04	9.39	9.69	9.02	7.63	5.87	4.13	2.73	1.84	1.42	1.32	1.35	1.38	1.38	1.41	1.51	1.68	1.85	1.89	1.71	1.27	0.64	-0.05	-0.73	-1.36	-2.04	-2.85	-3.9	-5.21	-6.79	-8.57	-10.43	-12.18	-13.52	-14.12	-13.65	-11.97	-9.18	-5.59	-1.68	2.08	5.3	7.74	9.27	9.91	9.72	8.89	7.64
-6.79	-7.12	-7.64	-8.45	-9.57	-10.94	-12.36	-13.5	-13.96	-13.4	-11.64	-8.79	-5.17	-1.25	2.5	5.69	8.04	9.39	9.69	9.02	7.63	5.87	4.13	2.73	1.84	1.42	1.32	1.35	1.38	1.38	1.41	1.51	1.68	1.85	1.89	1.71	1.27	0.64	-0.05	-0.73	-1.36	-2.04	-2.85	-3.9	-5.21	-6.79	-8.57	-10.43	-12.18	-13.52	-14.12	-13.65	-11.97	-9.18	-5.59	-1.68	2.08	5.3	7.74	9.27	9.91	9.72	8.89	7.64	6.24	4.91	3.8	2.97	2.37	1.93	1.57	1.26	1.02	0.9	0.95	1.16	1.4	1.51	1.32	0.75	-0.15	-1.23	-2.35	-3.37	-4.27	-5.08	-5.9	-6.87	-8.1	-9.64	-11.38	-13.02	-14.08	-14.04	-12.55	-9.58	-5.48	-0.87	3.52	7.14	9.68	11.12	11.64	11.44	10.71	9.6	8.28	6.97	5.91	5.32	5.3	5.72	6.33	6.79	6.89	6.56	5.93	5.19	4.49	3.88	3.26	2.53	1.62	0.56	-0.57	-1.68	-2.73	-3.7
6.24	4.91	3.8	2.97	2.37	1.93	1.57	1.26	1.02	0.9	0.95	1.16	1.4	1.51	1.32	0.75	-0.15	-1.23	-2.35	-3.37	-4.27	-5.08	-5.9	-6.87	-8.1	-9.64	-11.38	-13.02	-14.08	-14.04	-12.55	-9.58	-5.48	-0.87	3.52	7.14	9.68	11.12	11.64	11.44	10.71	9.6	8.28	6.97	5.91	5.32	5.3	5.72	6.33	6.79	6.89	6.56	5.93	5.19	4.49	3.88	3.26	2.53	1.62	0.56	-0.57	-1.68	-2.73	-3.7	-4.57	-5.35	-5.97	-6.46	-6.92	-7.57	-8.61	-10.08	-11.77	-13.19	-13.76	-13	-10.73	-7.18	-2.86	1.6	5.63	8.89	11.19	12.51	12.89	12.36	11.06	9.19	7.1	5.23	4	3.68	4.3	5.62	7.22	8.64	9.54	9.82	9.59	9.05	8.42	7.79	7.14	6.39	5.48	4.4	3.21	2.01	0.84	-0.25	-1.28	-2.3	-3.37	-4.56	-5.96	-7.59	-9.36	-11.04	-12.28	-12.69	-11.99	-10.09	-7.17	-3.58	0.2	3.72	6.64	8.77
-4.57	-5.35	-5.97	-6.46	-6.92	-7.57	-8.61	-10.08	-11.77	-13.19	-13.76	-13	-10.73	-7.18	-2.86	1.6	5.63	8.89	11.19	12.51	12.89	12.36	11.06	9.19	7.1	5.23	4	3.68	4.3	5.62	7.22	8.64	9.54	9.82	9.59	9.05	8.42	7.79	7.14	6.39	5.48	4.4	3.21	2.01	0.84	-0.25	-1.28	-2.3	-3.37	-4.56	-5.96	-7.59	-9.36	-11.04	-12.28	-12.69	-11.99	-10.09	-7.17	-3.58	0.2	3.72	6.64	8.77	10.01	10.39	10	9	7.62	6.13	4.82	3.93	3.64	3.93	4.67	5.56	6.32	6.69	6.6	6.15	5.5	4.83	4.16	3.39	2.36	0.98	-0.7	-2.45	-4.01	-5.2	-5.96	-6.42	-6.78	-7.21	-7.87	-8.82	-10.07	-11.6	-13.24	-14.74	-15.74	-15.86	-14.84	-12.65	-9.5	-5.79	-1.99	1.46	4.26	6.22	7.3	7.52	7	5.98	4.73	3.54	2.62	2.09	1.94	2.06	2.3	2.53	2.64	2.58	2.34	1.96	1.51	1.05
10.01	10.39	10	9	7.62	6.13	4.82	3.93	3.64	3.93	4.67	5.56	6.32	6.69	6.6	6.15	5.5	4.83	4.16	3.39	2.36	0.98	-0.7	-2.45	-4.01	-5.2	-5.96	-6.42	-6.78	-7.21	-7.87	-8.82	-10.07	-11.6	-13.24	-14.74	-15.74	-15.86	-14.84	-12.65	-9.5	-5.79	-1.99	1.46	4.26	6.22	7.3	7.52	7	5.98	4.73	3.54	2.62	2.09	1.94	2.06	2.3	2.53	2.64	2.58	2.34	1.96	1.51	1.05	0.6	0.11	-0.54	-1.46	-2.72	-4.28	-5.96	-7.55	-8.85	-9.71	-10.09	-10.06	-9.8	-9.52	-9.39	-9.48	-9.68	-9.74	-9.36	-8.3	-6.47	-3.98	-1.05	1.99	4.82	7.2	8.94	9.96	10.29	10.05	9.43	8.64	7.87	7.29	7	7.05	7.45	8.15	9.04	10.06	11.15	12.34	13.66	15.1	16.54	17.81	18.69	19.02	18.76	18.02	16.99	15.89	14.85	13.91	12.97	11.86	10.31	8.12	5.25	1.91	-1.46	-4.29	-6.09	-6.6
0.6	0.11	-0.54	-1.46	-2.72	-4.28	-5.96	-7.55	-8.85	-9.71	-10.09	-10.06	-9.8	-9.52	-9.39	-9.48	-9.68	-9.74	-9.36	-8.3	-6.47	-3.98	-1.05	1.99	4.82	7.2	8.94	9.96	10.29	10.05	9.43	8.64	7.87	7.29	7	7.05	7.45	8.15	9.04	10.06	11.15	12.34	13.66	15.1	16.54	17.81	18.69	19.02	18.76	18.02	16.99	15.89	14.85	13.91	12.97	11.86	10.31	8.12	5.25	1.91	-1.46	-4.29	-6.09	-6.6	-5.93	-4.42	-2.53	-0.63	1	2.24	2.97	3.08	2.5	1.21	-0.64	-2.76	-4.8	-6.43	-7.47	-7.89	-7.84	-7.49	-7.03	-6.57	-6.16	-5.79	-5.48	-5.3	-5.32	-5.64	-6.32	-7.26	-8.32	-9.34	-10.2	-10.95	-11.74	-12.73	-14	-15.42	-16.68	-17.37	-17.16	-15.93	-13.75	-10.9	-7.71	-4.49	-1.53	0.99	2.91	4.15	4.71	4.68	4.21	3.48	2.59	1.62	0.63	-0.3	-0.96	-1.13	-0.64	0.55	2.23	4.04	5.54	6.36
-5.93	-4.42	-2.53	-0.63	1	2.24	2.97	3.08	2.5	1.21	-0.64	-2.76	-4.8	-6.43	-7.47	-7.89	-7.84	-7.49	-7.03	-6.57	-6.16	-5.79	-5.48	-5.3	-5.32	-5.64	-6.32	-7.26	-8.32	-9.34	-10.2	-10.95	-11.74	-12.73	-14	-15.42	-16.68	-17.37	-17.16	-15.93	-13.75	-10.9	-7.71	-4.49	-1.53	0.99	2.91	4.15	4.71	4.68	4.21	3.48	2.59	1.62	0.63	-0.3	-0.96	-1.13	-0.64	0.55	2.23	4.04	5.54	6.36	6.28	5.31	3.58	1.37	-0.99	-3.17	-4.88	-5.93	-6.35	-6.29	-6.04	-5.84	-5.8	-5.81	-5.56	-4.7	-2.99	-0.38	2.88	6.39	9.64	12.28	14.08	15.02	15.2	14.74	13.76	12.41	10.84	9.24	7.79	6.6	5.66	4.88	4.16	3.46	2.88	2.57	2.65	3.1	3.76	4.37	4.7	4.64	4.17	3.38	2.39	1.29	0.12	-1.11	-2.45	-3.94	-5.6	-7.35	-9.01	-10.27	-10.75	-10.08	-8.08	-4.83	-0.67	3.84	8.08	11.54
6.28	5.31	3.58	1.37	-0.99	-3.17	-4.88	-5.93	-6.35	-6.29	-6.04	-5.84	-5.8	-5.81	-5.56	-4.7	-2.99	-0.38	2.88	6.39	9.64	12.28	14.08	15.02	15.2	14.74	13.76	12.41	10.84	9.24	7.79	6.6	5.66	4.88	4.16	3.46	2.88	2.57	2.65	3.1	3.76	4.37	4.7	4.64	4.17	3.38	2.39	1.29	0.12	-1.11	-2.45	-3.94	-5.6	-7.35	-9.01	-10.27	-10.75	-10.08	-8.08	-4.83	-0.67	3.84	8.08	11.54	13.89	15.05	15.11	14.28	12.78	10.87	8.79	6.77	5.03	3.73	2.93	2.61	2.62	2.81	2.98	3.02	2.82	2.35	1.64	0.74	-0.25	-1.23	-2.11	-2.84	-3.41	-3.81	-4.08	-4.29	-4.52	-4.83	-5.28	-5.84	-6.51	-7.25	-8.08	-9.07	-10.3	-11.75	-13.29	-14.59	-15.22	-14.78	-13.02	-9.97	-5.91	-1.33	3.27	7.44	10.92	13.53	15.21	15.89	15.57	14.33	12.4	10.15	8.01	6.32	5.28	4.88	4.93	5.24	5.6	5.91
13.89	15.05	15.11	14.28	12.78	10.87	8.79	6.77	5.03	3.73	2.93	2.61	2.62	2.81	2.98	3.02	2.82	2.35	1.64	0.74	-0.25	-1.23	-2.11	-2.84	-3.41	-3.81	-4.08	-4.29	-4.52	-4.83	-5.28	-5.84	-6.51	-7.25	-8.08	-9.07	-10.3	-11.75	-13.29	-14.59	-15.22	-14.78	-13.02	-9.97	-5.91	-1.33	3.27	7.44	10.92	13.53	15.21	15.89	15.57	14.33	12.4	10.15	8.01	6.32	5.28	4.88	4.93	5.24	5.6	5.91	6.12	6.17	6	5.51	4.65	3.39	1.8	0.03	-1.76	-3.41	-4.84	-6.03	-7.01	-7.8	-8.43	-8.88	-9.12	-9.21	-9.26	-9.44	-9.92	-10.81	-12.04	-13.36	-14.35	-14.5	-13.35	-10.68	-6.57	-1.48	3.84	8.62	12.25	14.48	15.38	15.29	14.61	13.71	12.82	12.12	11.67	11.44	11.31	11.08	10.52	9.5	8.02	6.24	4.38	2.66	1.19	0.04	-0.84	-1.5	-2.01	-2.48	-3.03	-3.78	-4.76	-5.94	-7.19	-8.33	-9.24	-9.85
6.12	6.17	6	5.51	4.65	3.39	1.8	0.03	-1.76	-3.41	-4.84	-6.03	-7.01	-7.8	-8.43	-8.88	-9.12	-9.21	-9.26	-9.44	-9.92	-10.81	-12.04	-13.36	-14.35	-14.5	-13.35	-10.68	-6.57	-1.48	3.84	8.62	12.25	14.48	15.38	15.29	14.61	13.71	12.82	12.12	11.67	11.44	11.31	11.08	10.52	9.5	8.02	6.24	4.38	2.66	1.19	0.04	-0.84	-1.5	-2.01	-2.48	-3.03	-3.78	-4.76	-5.94	-7.19	-8.33	-9.24	-9.85	-10.2	-10.39	-10.57	-10.9	-11.49	-12.4	-13.58	-14.89	-16.04	-16.67	-16.43	-15.06	-12.5	-8.92	-4.71	-0.39	3.53	6.67	8.81	9.91	10.03	9.29	7.84	5.89	3.7	1.59	-0.11	-1.18	-1.54	-1.32	-0.75	-0.1	0.45	0.83	1.09	1.3	1.48	1.57	1.44	0.98	0.12	-1.08	-2.51	-4	-5.37	-6.52	-7.4	-8.04	-8.56	-9.1	-9.82	-10.81	-12.05	-13.31	-14.21	-14.29	-13.18	-10.76	-7.19	-2.92	1.45	5.33	8.33	10.3
-10.2	-10.39	-10.57	-10.9	-11.49	-12.4	-13.58	-14.89	-16.04	-16.67	-16.43	-15.06	-12.5	-8.92	-4.71	-0.39	3.53	6.67	8.81	9.91	10.03	9.29	7.84	5.89	3.7	1.59	-0.11	-1.18	-1.54	-1.32	-0.75	-0.1	0.45	0.83	1.09	1.3	1.48	1.57	1.44	0.98	0.12	-1.08	-2.51	-4	-5.37	-6.52	-7.4	-8.04	-8.56	-9.1	-9.82	-10.81	-12.05	-13.31	-14.21	-14.29	-13.18	-10.76	-7.19	-2.92	1.45	5.33	8.33	10.3	11.28	11.43	10.89	9.75	8.11	6.1	3.94	1.91	0.25	-0.91	-1.62	-2.02	-2.28	-2.51	-2.69	-2.79	-2.82	-2.89	-3.18	-3.84	-4.93	-6.33	-7.83	-9.17	-10.21	-10.92	-11.43	-11.93	-12.61	-13.53	-14.55	-15.35	-15.45	-14.43	-12.06	-8.43	-3.97	0.69	4.88	8.1	10.13	11.01	10.97	10.32	9.33	8.25	7.23	6.4	5.82	5.48	5.32	5.23	5.09	4.83	4.41	3.84	3.12	2.26	1.26	0.13	-1.02	-2.06	-2.85	-3.39
11.28	11.43	10.89	9.75	8.11	6.1	3.94	1.91	0.25	-0.91	-1.62	-2.02	-2.28	-2.51	-2.69	-2.79	-2.82	-2.89	-3.18	-3.84	-4.93	-6.33	-7.83	-9.17	-10.21	-10.92	-11.43	-11.93	-12.61	-13.53	-14.55	-15.35	-15.45	-14.43	-12.06	-8.43	-3.97	0.69	4.88	8.1	10.13	11.01	10.97	10.32	9.33	8.25	7.23	6.4	5.82	5.48	5.32	5.23	5.09	4.83	4.41	3.84	3.12	2.26	1.26	0.13	-1.02	-2.06	-2.85	-3.39	-3.79	-4.27	-5.07	-6.35	-8.14	-10.32	-12.65	-14.81	-16.42	-17.1	-16.49	-14.41	-10.9	-6.29	-1.15	3.84	8.04	11	12.58	12.87	12.19	10.92	9.43	7.99	6.72	5.65	4.77	4.04	3.45	3	2.69	2.52	2.44	2.38	2.28	2.02	1.55	0.84	-0.07	-1.12	-2.18	-3.18	-4.08	-4.91	-5.8	-6.87	-8.23	-9.86	-11.54	-12.89	-13.5	-13.02	-11.3	-8.46	-4.85	-0.88	2.97	6.29	8.73	10.04	10.16	9.2	7.5	5.46
-3.79	-4.27	-5.07	-6.35	-8.14	-10.32	-12.65	-14.81	-16.42	-17.1	-16.49	-14.41	-10.9	-6.29	-1.15	3.84	8.04	11	12.58	12.87	12.19	10.92	9.43	7.99	6.72	5.65	4.77	4.04	3.45	3	2.69	2.52	2.44	2.38	2.28	2.02	1.55	0.84	-0.07	-1.12	-2.18	-3.18	-4.08	-4.91	-5.8	-6.87	-8.23	-9.86	-11.54	-12.89	-13.5	-13.02	-11.3	-8.46	-4.85	-0.88	2.97	6.29	8.73	10.04	10.16	9.2	7.5	5.46	3.45	1.7	0.29	-0.74	-1.36	-1.48	-1.07	-0.19	0.93	2.01	2.86	3.46	3.92	4.38	4.87	5.26	5.36	5.04	4.34	3.44	2.57	1.87	1.25	0.56	-0.39	-1.61	-2.94	-4.04	-4.54	-4.14	-2.7	-0.24	3.01	6.67	10.34	13.55	15.96	17.34	17.64	16.97	15.58	13.75	11.76	9.86	8.24	6.99	6.15	5.69	5.52	5.56	5.68	5.8	5.87	5.87	5.79	5.65	5.42	5.11	4.68	4.19	3.68	3.18	2.69	2.1
3.45	1.7	0.29	-0.74	-1.36	-1.48	-1.07	-0.19	0.93	2.01	2.86	3.46	3.92	4.38	4.87	5.26	5.36	5.04	4.34	3.44	2.57	1.87	1.25	0.56	-0.39	-1.61	-2.94	-4.04	-4.54	-4.14	-2.7	-0.24	3.01	6.67	10.34	13.55	15.96	17.34	17.64	16.97	15.58	13.75	11.76	9.86	8.24	6.99	6.15	5.69	5.52	5.56	5.68	5.8	5.87	5.87	5.79	5.65	5.42	5.11	4.68	4.19	3.68	3.18	2.69	2.1	1.3	0.19	-1.2	-2.69	-3.98	-4.71	-4.64	-3.65	-1.86	0.47	3	5.38	7.29	8.5	8.89	8.44	7.23	5.45	3.36	1.28	-0.52	-1.84	-2.63	-2.94	-2.96	-2.87	-2.82	-2.87	-3.02	-3.19	-3.34	-3.5	-3.72	-4.1	-4.71	-5.55	-6.53	-7.57	-8.58	-9.55	-10.56	-11.68	-12.89	-14.04	-14.78	-14.73	-13.58	-11.23	-7.85	-3.83	0.29	4.02	6.98	8.96	9.93	9.97	9.24	8	6.55	5.17	4.05	3.25	2.7	2.26
1.3	0.19	-1.2	-2.69	-3.98	-4.71	-4.64	-3.65	-1.86	0.47	3	5.38	7.29	8.5	8.89	8.44	7.23	5.45	3.36	1.28	-0.52	-1.84	-2.63	-2.94	-2.96	-2.87	-2.82	-2.87	-3.02	-3.19	-3.34	-3.5	-3.72	-4.1	-4.71	-5.55	-6.53	-7.57	-8.58	-9.55	-10.56	-11.68	-12.89	-14.04	-14.78	-14.73	-13.58	-11.23	-7.85	-3.83	0.29	4.02	6.98	8.96	9.93	9.97	9.24	8	6.55	5.17	4.05	3.25	2.7	2.26	1.79	1.23	0.59	-0.05	-0.58	-0.97	-1.24	-1.44	-1.66	-1.93	-2.3	-2.78	-3.4	-4.23	-5.31	-6.67	-8.24	-9.83	-11.12	-11.78	-11.51	-10.18	-7.84	-4.75	-1.28	2.15	5.14	7.38	8.7	9.06	8.6	7.52	6.06	4.47	2.91	1.51	0.38	-0.41	-0.81	-0.85	-0.61	-0.22	0.16	0.35	0.25	-0.21	-1.01	-2.06	-3.21	-4.35	-5.39	-6.39	-7.45	-8.7	-10.21	-11.88	-13.45	-14.54	-14.74	-13.78	-11.55	-8.22	-4.17	0.08
1.79	1.23	0.59	-0.05	-0.58	-0.97	-1.24	-1.44	-1.66	-1.93	-2.3	-2.78	-3.4	-4.23	-5.31	-6.67	-8.24	-9.83	-11.12	-11.78	-11.51	-10.18	-7.84	-4.75	-1.28	2.15	5.14	7.38	8.7	9.06	8.6	7.52	6.06	4.47	2.91	1.51	0.38	-0.41	-0.81	-0.85	-0.61	-0.22	0.16	0.35	0.25	-0.21	-1.01	-2.06	-3.21	-4.35	-5.39	-6.39	-7.45	-8.7	-10.21	-11.88	-13.45	-14.54	-14.74	-13.78	-11.55	-8.22	-4.17	0.08	3.95	7	8.93	9.7	9.45	8.5	7.2	5.89	4.77	3.91	3.31	2.92	2.72	2.69	2.82	3.1	3.46	3.81	4.04	4.07	3.85	3.37	2.63	1.7	0.65	-0.45	-1.56	-2.68	-3.81	-4.95	-6.09	-7.25	-8.44	-9.69	-10.93	-11.97	-12.53	-12.23	-10.82	-8.26	-4.78	-0.81	3.16	6.66	9.39	11.15	11.85	11.52	10.3	8.49	6.47	4.64	3.34	2.72	2.77	3.33	4.16	5.01	5.67	5.98	5.89	5.42	4.68	3.84
3.95	7	8.93	9.7	9.45	8.5	7.2	5.89	4.77	3.91	3.31	2.92	2.72	2.69	2.82	3.1	3.46	3.81	4.04	4.07	3.85	3.37	2.63	1.7	0.65	-0.45	-1.56	-2.68	-3.81	-4.95	-6.09	-7.25	-8.44	-9.69	-10.93	-11.97	-12.53	-12.23	-10.82	-8.26	-4.78	-0.81	3.16	6.66	9.39	11.15	11.85	11.52	10.3	8.49	6.47	4.64	3.34	2.72	2.77	3.33	4.16	5.01	5.67	5.98	5.89	5.42	4.68	3.84	3.03	2.33	1.76	1.27	0.82	0.38	-0.04	-0.47	-0.93	-1.51	-2.28	-3.29	-4.49	-5.73	-6.86	-7.69	-8.17	-8.36	-8.46	-8.71	-9.36	-10.52	-12.13	-13.9	-15.42	-16.23	-15.93	-14.32	-11.44	-7.62	-3.38	0.73	4.23	6.88	8.66	9.7	10.17	10.21	9.94	9.49	9.02	8.67	8.52	8.56	8.72	8.89	9.03	9.14	9.23	9.32	9.38	9.37	9.24	8.98	8.57	8.03	7.37	6.63	5.87	5.14	4.45	3.79	3.09	2.34
3.03	2.33	1.76	1.27	0.82	0.38	-0.04	-0.47	-0.93	-1.51	-2.28	-3.29	-4.49	-5.73	-6.86	-7.69	-8.17	-8.36	-8.46	-8.71	-9.36	-10.52	-12.13	-13.9	-15.42	-16.23	-15.93	-14.32	-11.44	-7.62	-3.38	0.73	4.23	6.88	8.66	9.7	10.17	10.21	9.94	9.49	9.02	8.67	8.52	8.56	8.72	8.89	9.03	9.14	9.23	9.32	9.38	9.37	9.24	8.98	8.57	8.03	7.37	6.63	5.87	5.14	4.45	3.79	3.09	2.34	1.55	0.74	-0.04	-0.82	-1.65	-2.54	-3.45	-4.27	-4.91	-5.35	-5.71	-6.14	-6.8	-7.76	-8.96	-10.25	-11.45	-12.33	-12.66	-12.2	-10.77	-8.32	-5.01	-1.22	2.52	5.7	7.97	9.24	9.66	9.48	8.97	8.33	7.65	6.98	6.37	5.88	5.6	5.6	5.83	6.21	6.58	6.84	6.95	6.95	6.9	6.8	6.6	6.21	5.57	4.7	3.68	2.67	1.78	1.07	0.53	0.15	-0.13	-0.37	-0.64	-1.05	-1.68	-2.52	-3.47	-4.39
1.55	0.74	-0.04	-0.82	-1.65	-2.54	-3.45	-4.27	-4.91	-5.35	-5.71	-6.14	-6.8	-7.76	-8.96	-10.25	-11.45	-12.33	-12.66	-12.2	-10.77	-8.32	-5.01	-1.22	2.52	5.7	7.97	9.24	9.66	9.48	8.97	8.33	7.65	6.98	6.37	5.88	5.6	5.6	5.83	6.21	6.58	6.84	6.95	6.95	6.9	6.8	6.6	6.21	5.57	4.7	3.68	2.67	1.78	1.07	0.53	0.15	-0.13	-0.37	-0.64	-1.05	-1.68	-2.52	-3.47	-4.39	-5.19	-5.89	-6.61	-7.55	-8.82	-10.35	-11.86	-12.9	-13.05	-12.04	-9.86	-6.74	-3.09	0.63	4.03	6.77	8.68	9.71	9.9	9.38	8.38	7.14	5.91	4.87	4.17	3.86	3.92	4.25	4.72	5.13	5.39	5.42	5.26	4.97	4.59	4.1	3.44	2.6	1.61	0.61	-0.26	-0.91	-1.32	-1.55	-1.71	-1.83	-1.93	-1.97	-1.95	-1.96	-2.11	-2.53	-3.3	-4.42	-5.83	-7.44	-9.14	-10.77	-12.13	-12.99	-13.08	-12.22	-10.38	-7.71
-5.19	-5.89	-6.61	-7.55	-8.82	-10.35	-11.86	-12.9	-13.05	-12.04	-9.86	-6.74	-3.09	0.63	4.03	6.77	8.68	9.71	9.9	9.38	8.38	7.14	5.91	4.87	4.17	3.86	3.92	4.25	4.72	5.13	5.39	5.42	5.26	4.97	4.59	4.1	3.44	2.6	1.61	0.61	-0.26	-0.91	-1.32	-1.55	-1.71	-1.83	-1.93	-1.97	-1.95	-1.96	-2.11	-2.53	-3.3	-4.42	-5.83	-7.44	-9.14	-10.77	-12.13	-12.99	-13.08	-12.22	-10.38	-7.71	-4.54	-1.22	1.92	4.65	6.9	8.6	9.72	10.24	10.17	9.61	8.75	7.84	7.06	6.53	6.25	6.2	6.3	6.52	6.78	6.99	7.04	6.87	6.49	5.99	5.48	5.04	4.62	4.18	3.61	2.91	2.08	1.15	0.15	-0.94	-2.11	-3.32	-4.46	-5.39	-6.06	-6.51	-6.93	-7.55	-8.51	-9.79	-11.14	-12.17	-12.48	-11.82	-10.15	-7.61	-4.47	-1.05	2.32	5.3	7.6	9	9.43	9.03	8.07	6.94	5.93	5.23	4.86	4.71
-4.54	-1.22	1.92	4.65	6.9	8.6	9.72	10.24	10.17	9.61	8.75	7.84	7.06	6.53	6.25	6.2	6.3	6.52	6.78	6.99	7.04	6.87	6.49	5.99	5.48	5.04	4.62	4.18	3.61	2.91	2.08	1.15	0.15	-0.94	-2.11	-3.32	-4.46	-5.39	-6.06	-6.51	-6.93	-7.55	-8.51	-9.79	-11.14	-12.17	-12.48	-11.82	-10.15	-7.61	-4.47	-1.05	2.32	5.3	7.6	9	9.43	9.03	8.07	6.94	5.93	5.23	4.86	4.71	4.67	4.61	4.42	4.06	3.52	2.84	2.09	1.37	0.75	0.27	-0.11	-0.45	-0.84	-1.31	-1.87	-2.47	-3.07	-3.63	-4.17	-4.7	-5.22	-5.74	-6.27	-6.93	-7.79	-8.91	-10.17	-11.3	-11.88	-11.53	-10.04	-7.53	-4.35	-1	2.09	4.64	6.5	7.67	8.17	8.06	7.43	6.43	5.26	4.14	3.18	2.42	1.79	1.22	0.69	0.26	0.06	0.17	0.55	1.03	1.33	1.24	0.66	-0.3	-1.44	-2.54	-3.47	-4.24	-4.9	-5.49
4.67	4.61	4.42	4.06	3.52	2.84	2.09	1.37	0.75	0.27	-0.11	-0.45	-0.84	-1.31	-1.87	-2.47	-3.07	-3.63	-4.17	-4.7	-5.22	-5.74	-6.27	-6.93	-7.79	-8.91	-10.17	-11.3	-11.88	-11.53	-10.04	-7.53	-4.35	-1	2.09	4.64	6.5	7.67	8.17	8.06	7.43	6.43	5.26	4.14	3.18	2.42	1.79	1.22	0.69	0.26	0.06	0.17	0.55	1.03	1.33	1.24	0.66	-0.3	-1.44	-2.54	-3.47	-4.24	-4.9	-5.49	-5.97	-6.22	-6.12	-5.63	-4.84	-3.93	-3.09	-2.5	-2.27	-2.44	-2.98	-3.76	-4.53	-4.9	-4.51	-3.12	-0.76	2.25	5.42	8.25	10.37	11.63	12.04	11.67	10.66	9.14	7.28	5.35	3.64	2.4	1.82	1.89	2.46	3.27	4.03	4.51	4.61	4.37	3.94	3.51	3.17	2.88	2.46	1.7	0.43	-1.29	-3.29	-5.25	-6.87	-8.01	-8.66	-9.02	-9.36	-9.94	-10.93	-12.3	-13.77	-14.87	-15.1	-14.1	-11.82	-8.55	-4.8	-1.14
-5.97	-6.22	-6.12	-5.63	-4.84	-3.93	-3.09	-2.5	-2.27	-2.44	-2.98	-3.76	-4.53	-4.9	-4.51	-3.12	-0.76	2.25	5.42	8.25	10.37	11.63	12.04	11.67	10.66	9.14	7.28	5.35	3.64	2.4	1.82	1.89	2.46	3.27	4.03	4.51	4.61	4.37	3.94	3.51	3.17	2.88	2.46	1.7	0.43	-1.29	-3.29	-5.25	-6.87	-8.01	-8.66	-9.02	-9.36	-9.94	-10.93	-12.3	-13.77	-14.87	-15.1	-14.1	-11.82	-8.55	-4.8	-1.14	2.03	4.5	6.27	7.4	7.94	7.92	7.35	6.29	4.89	3.36	1.9	0.7	-0.16	-0.64	-0.81	-0.75	-0.56	-0.33	-0.12	0.03	0.1	0.05	-0.21	-0.78	-1.74	-3.09	-4.72	-6.43	-7.99	-9.21	-10.05	-10.59	-11.01	-11.49	-12.15	-13.01	-14	-14.98	-15.71	-15.9	-15.23	-13.43	-10.46	-6.53	-2.11	2.18	5.72	8.1	9.14	8.9	7.66	5.72	3.42	1.05	-1.16	-3.05	-4.51	-5.52	-6.08	-6.24	-6.04	-5.49	-4.54	-3.17
2.03	4.5	6.27	7.4	7.94	7.92	7.35	6.29	4.89	3.36	1.9	0.7	-0.16	-0.64	-0.81	-0.75	-0.56	-0.33	-0.12	0.03	0.1	0.05	-0.21	-0.78	-1.74	-3.09	-4.72	-6.43	-7.99	-9.21	-10.05	-10.59	-11.01	-11.49	-12.15	-13.01	-14	-14.98	-15.71	-15.9	-15.23	-13.43	-10.46	-6.53	-2.11	2.18	5.72	8.1	9.14	8.9	7.66	5.72	3.42	1.05	-1.16	-3.05	-4.51	-5.52	-6.08	-6.24	-6.04	-5.49	-4.54	-3.17	-1.36	0.81	3.13	5.3	7.04	8.15	8.61	8.54	8.09	7.39	6.42	5.08	3.24	0.86	-1.97	-5.01	-7.9	-10.26	-11.71	-11.92	-10.75	-8.24	-4.72	-0.68	3.26	6.57	8.89	10.14	10.43	9.99	9.08	7.92	6.68	5.45	4.3	3.24	2.3	1.5	0.91	0.58	0.57	0.86	1.37	1.98	2.47	2.64	2.28	1.32	-0.19	-2.01	-3.8	-5.18	-5.95	-6.11	-5.93	-5.83	-6.17	-7.14	-8.61	-10.24	-11.53	-11.99	-11.28	-9.27
-1.36	0.81	3.13	5.3	7.04	8.15	8.61	8.54	8.09	7.39	6.42	5.08	3.24	0.86	-1.97	-5.01	-7.9	-10.26	-11.71	-11.92	-10.75	-8.24	-4.72	-0.68	3.26	6.57	8.89	10.14	10.43	9.99	9.08	7.92	6.68	5.45	4.3	3.24	2.3	1.5	0.91	0.58	0.57	0.86	1.37	1.98	2.47	2.64	2.28	1.32	-0.19	-2.01	-3.8	-5.18	-5.95	-6.11	-5.93	-5.83	-6.17	-7.14	-8.61	-10.24	-11.53	-11.99	-11.28	-9.27	-6.11	-2.17	2.06	6.06	9.39	11.8	13.21	13.73	13.52	12.8	11.76	10.63	9.62	8.96	8.78	9.06	9.66	10.33	10.8	10.91	10.6	9.97	9.17	8.33	7.52	6.72	5.89	4.95	3.86	2.63	1.35	0.11	-1	-1.96	-2.82	-3.7	-4.69	-5.86	-7.23	-8.79	-10.51	-12.33	-14.12	-15.62	-16.46	-16.25	-14.77	-12.03	-8.39	-4.39	-0.61	2.57	4.99	6.69	7.75	8.26	8.24	7.73	6.8	5.66	4.51	3.57	2.94	2.64
-6.11	-2.17	2.06	6.06	9.39	11.8	13.21	13.73	13.52	12.8	11.76	10.63	9.62	8.96	8.78	9.06	9.66	10.33	10.8	10.91	10.6	9.97	9.17	8.33	7.52	6.72	5.89	4.95	3.86	2.63	1.35	0.11	-1	-1.96	-2.82	-3.7	-4.69	-5.86	-7.23	-8.79	-10.51	-12.33	-14.12	-15.62	-16.46	-16.25	-14.77	-12.03	-8.39	-4.39	-0.61	2.57	4.99	6.69	7.75	8.26	8.24	7.73	6.8	5.66	4.51	3.57	2.94	2.64	2.6	2.74	3.01	3.4	3.9	4.5	5.11	5.57	5.73	5.48	4.83	3.9	2.88	1.94	1.17	0.59	0.17	-0.11	-0.25	-0.29	-0.31	-0.47	-0.95	-1.93	-3.47	-5.48	-7.73	-9.85	-11.4	-12	-11.37	-9.45	-6.4	-2.6	1.47	5.31	8.53	10.91	12.43	13.21	13.5	13.49	13.33	13.05	12.64	12.06	11.35	10.59	9.84	9.11	8.32	7.39	6.32	5.19	4.16	3.4	2.92	2.65	2.4	2	1.35	0.47	-0.55	-1.59
2.6	2.74	3.01	3.4	3.9	4.5	5.11	5.57	5.73	5.48	4.83	3.9	2.88	1.94	1.17	0.59	0.17	-0.11	-0.25	-0.29	-0.31	-0.47	-0.95	-1.93	-3.47	-5.48	-7.73	-9.85	-11.4	-12	-11.37	-9.45	-6.4	-2.6	1.47	5.31	8.53	10.91	12.43	13.21	13.5	13.49	13.33	13.05	12.64	12.06	11.35	10.59	9.84	9.11	8.32	7.39	6.32	5.19	4.16	3.4	2.92	2.65	2.4	2	1.35	0.47	-0.55	-1.59	-2.56	-3.4	-4.09	-4.65	-5.14	-5.67	-6.3	-7.11	-8.09	-9.19	-10.35	-11.47	-12.44	-13.1	-13.29	-12.87	-11.83	-10.28	-8.43	-6.49	-4.55	-2.53	-0.27	2.29	5.03	7.64	9.69	10.92	11.26	10.93	10.24	9.46	8.7	7.97	7.27	6.67	6.27	6.15	6.24	6.36	6.25	5.72	4.71	3.31	1.65	-0.09	-1.77	-3.22	-4.3	-4.9	-5	-4.69	-4.19	-3.72	-3.43	-3.34	-3.4	-3.53	-3.69	-3.96	-4.43	-5.15	-6.05	-6.89
-2.56	-3.4	-4.09	-4.65	-5.14	-5.67	-6.3	-7.11	-8.09	-9.19	-10.35	-11.47	-12.44	-13.1	-13.29	-12.87	-11.83	-10.28	-8.43	-6.49	-4.55	-2.53	-0.27	2.29	5.03	7.64	9.69	10.92	11.26	10.93	10.24	9.46	8.7	7.97	7.27	6.67	6.27	6.15	6.24	6.36	6.25	5.72	4.71	3.31	1.65	-0.09	-1.77	-3.22	-4.3	-4.9	-5	-4.69	-4.19	-3.72	-3.43	-3.34	-3.4	-3.53	-3.69	-3.96	-4.43	-5.15	-6.05	-6.89	-7.35	-7.12	-6.02	-4.09	-1.57	1.2	3.87	6.18	7.98	9.22	9.91	10.09	9.79	9.11	8.21	7.28	6.48	5.91	5.54	5.31	5.14	5.02	4.98	5.03	5.16	5.28	5.27	5.02	4.5	3.76	2.9	2.04	1.27	0.64	0.1	-0.41	-1.02	-1.78	-2.7	-3.71	-4.71	-5.62	-6.4	-7.11	-7.79	-8.48	-9.18	-9.9	-10.66	-11.51	-12.47	-13.44	-14.19	-14.41	-13.81	-12.28	-9.95	-7.2	-4.51	-2.3	-0.8	-0.05	0.09	-0.24
-7.35	-7.12	-6.02	-4.09	-1.57	1.2	3.87	6.18	7.98	9.22	9.91	10.09	9.79	9.11	8.21	7.28	6.48	5.91	5.54	5.31	5.14	5.02	4.98	5.03	5.16	5.28	5.27	5.02	4.5	3.76	2.9	2.04	1.27	0.64	0.1	-0.41	-1.02	-1.78	-2.7	-3.71	-4.71	-5.62	-6.4	-7.11	-7.79	-8.48	-9.18	-9.9	-10.66	-11.51	-12.47	-13.44	-14.19	-14.41	-13.81	-12.28	-9.95	-7.2	-4.51	-2.3	-0.8	-0.05	0.09	-0.24	-0.9	-1.83	-2.95	-4.15	-5.18	-5.74	-5.54	-4.46	-2.57	-0.14	2.48	4.97	7.12	8.84	10.12	10.93	11.28	11.13	10.53	9.57	8.42	7.22	6.06	4.93	3.75	2.48	1.09	-0.34	-1.71	-2.93	-3.94	-4.8	-5.65	-6.64	-7.9	-9.43	-11.05	-12.47	-13.35	-13.4	-12.45	-10.53	-7.85	-4.78	-1.76	0.81	2.63	3.62	3.86	3.58	2.99	2.24	1.34	0.31	-0.84	-1.97	-2.88	-3.37	-3.31	-2.75	-1.85	-0.84	0.09	0.86
-0.9	-1.83	-2.95	-4.15	-5.18	-5.74	-5.54	-4.46	-2.57	-0.14	2.48	4.97	7.12	8.84	10.12	10.93	11.28	11.13	10.53	9.57	8.42	7.22	6.06	4.93	3.75	2.48	1.09	-0.34	-1.71	-2.93	-3.94	-4.8	-5.65	-6.64	-7.9	-9.43	-11.05	-12.47	-13.35	-13.4	-12.45	-10.53	-7.85	-4.78	-1.76	0.81	2.63	3.62	3.86	3.58	2.99	2.24	1.34	0.31	-0.84	-1.97	-2.88	-3.37	-3.31	-2.75	-1.85	-0.84	0.09	0.86	1.49	2.08	2.7	3.37	4.04	4.58	4.89	4.91	4.66	4.24	3.76	3.32	2.95	2.63	2.3	1.86	1.25	0.38	-0.76	-2.17	-3.79	-5.43	-6.84	-7.7	-7.7	-6.7	-4.79	-2.25	0.48	2.98	4.97	6.36	7.17	7.49	7.39	6.9	6.08	5.02	3.92	2.98	2.32	2	1.95	2.07	2.24	2.41	2.56	2.68	2.76	2.8	2.79	2.74	2.66	2.53	2.3	1.92	1.39	0.76	0.13	-0.37	-0.67	-0.76	-0.76	-0.82
1.49	2.08	2.7	3.37	4.04	4.58	4.89	4.91	4.66	4.24	3.76	3.32	2.95	2.63	2.3	1.86	1.25	0.38	-0.76	-2.17	-3.79	-5.43	-6.84	-7.7	-7.7	-6.7	-4.79	-2.25	0.48	2.98	4.97	6.36	7.17	7.49	7.39	6.9	6.08	5.02	3.92	2.98	2.32	2	1.95	2.07	2.24	2.41	2.56	2.68	2.76	2.8	2.79	2.74	2.66	2.53	2.3	1.92	1.39	0.76	0.13	-0.37	-0.67	-0.76	-0.76	-0.82	-1.12	-1.8	-2.87	-4.3	-5.94	-7.6	-9.04	-10	-10.3	-9.81	-8.6	-6.87	-4.93	-3.11	-1.63	-0.64	-0.12	-0.02	-0.24	-0.71	-1.3	-1.9	-2.34	-2.47	-2.21	-1.5	-0.39	1.05	2.66	4.28	5.76	7	7.97	8.76	9.44	10.06	10.55	10.77	10.58	9.88	8.7	7.2	5.6	4.09	2.74	1.57	0.51	-0.5	-1.51	-2.59	-3.76	-5.07	-6.48	-7.84	-8.88	-9.32	-8.95	-7.69	-5.67	-3.14	-0.39	2.33	4.75	6.68
-1.12	-1.8	-2.87	-4.3	-5.94	-7.6	-9.04	-10	-10.3	-9.81	-8.6	-6.87	-4.93	-3.11	-1.63	-0.64	-0.12	-0.02	-0.24	-0.71	-1.3	-1.9	-2.34	-2.47	-2.21	-1.5	-0.39	1.05	2.66	4.28	5.76	7	7.97	8.76	9.44	10.06	10.55	10.77	10.58	9.88	8.7	7.2	5.6	4.09	2.74	1.57	0.51	-0.5	-1.51	-2.59	-3.76	-5.07	-6.48	-7.84	-8.88	-9.32	-8.95	-7.69	-5.67	-3.14	-0.39	2.33	4.75	6.68	7.89	8.23	7.69	6.39	4.62	2.73	1.02	-0.3	-1.17	-1.61	-1.71	-1.57	-1.33	-1.12	-1.03	-1.12	-1.38	-1.78	-2.27	-2.85	-3.52	-4.33	-5.29	-6.39	-7.57	-8.72	-9.69	-10.34	-10.52	-10.12	-9.15	-7.72	-6.06	-4.42	-3	-1.81	-0.73	0.46	1.91	3.55	5.15	6.41	7.1	7.19	6.85	6.31	5.77	5.29	4.77	4.14	3.37	2.57	1.89	1.42	1.17	0.98	0.67	0.08	-0.78	-1.81	-2.85	-3.81	-4.73	-5.74
7.89	8.23	7.69	6.39	4.62	2.73	1.02	-0.3	-1.17	-1.61	-1.71	-1.57	-1.33	-1.12	-1.03	-1.12	-1.38	-1.78	-2.27	-2.85	-3.52	-4.33	-5.29	-6.39	-7.57	-8.72	-9.69	-10.34	-10.52	-10.12	-9.15	-7.72	-6.06	-4.42	-3	-1.81	-0.73	0.46	1.91	3.55	5.15	6.41	7.1	7.19	6.85	6.31	5.77	5.29	4.77	4.14	3.37	2.57	1.89	1.42	1.17	0.98	0.67	0.08	-0.78	-1.81	-2.85	-3.81	-4.73	-5.74	-7.04	-8.66	-10.47	-12.16	-13.35	-13.75	-13.26	-12.02	-10.3	-8.47	-6.86	-5.7	-5.08	-4.94	-5.05	-5.12	-4.82	-3.89	-2.25	-0.01	2.53	5.05	7.2	8.77	9.67	9.92	9.64	9.03	8.32	7.71	7.33	7.2	7.22	7.25	7.1	6.71	6.1	5.36	4.63	3.99	3.46	2.96	2.42	1.8	1.12	0.45	-0.14	-0.62	-0.99	-1.35	-1.77	-2.31	-3.01	-3.82	-4.66	-5.36	-5.76	-5.66	-5	-3.76	-2.08	-0.12	1.91	3.86
-7.04	-8.66	-10.47	-12.16	-13.35	-13.75	-13.26	-12.02	-10.3	-8.47	-6.86	-5.7	-5.08	-4.94	-5.05	-5.12	-4.82	-3.89	-2.25	-0.01	2.53	5.05	7.2	8.77	9.67	9.92	9.64	9.03	8.32	7.71	7.33	7.2	7.22	7.25	7.1	6.71	6.1	5.36	4.63	3.99	3.46	2.96	2.42	1.8	1.12	0.45	-0.14	-0.62	-0.99	-1.35	-1.77	-2.31	-3.01	-3.82	-4.66	-5.36	-5.76	-5.66	-5	-3.76	-2.08	-0.12	1.91	3.86	5.63	7.18	8.44	9.36	9.88	9.99	9.73	9.18	8.47	7.69	6.95	6.29	5.77	5.38	5.09	4.78	4.31	3.53	2.39	0.97	-0.55	-1.98	-3.17	-4.09	-4.81	-5.44	-6.11	-6.93	-7.98	-9.28	-10.76	-12.26	-13.49	-14.14	-13.93	-12.8	-10.85	-8.42	-5.91	-3.71	-2.08	-1.11	-0.74	-0.77	-0.99	-1.21	-1.31	-1.24	-1.03	-0.73	-0.35	0.07	0.54	1	1.35	1.47	1.25	0.66	-0.22	-1.27	-2.35	-3.46	-4.63	-5.85
5.63	7.18	8.44	9.36	9.88	9.99	9.73	9.18	8.47	7.69	6.95	6.29	5.77	5.38	5.09	4.78	4.31	3.53	2.39	0.97	-0.55	-1.98	-3.17	-4.09	-4.81	-5.44	-6.11	-6.93	-7.98	-9.28	-10.76	-12.26	-13.49	-14.14	-13.93	-12.8	-10.85	-8.42	-5.91	-3.71	-2.08	-1.11	-0.74	-0.77	-0.99	-1.21	-1.31	-1.24	-1.03	-0.73	-0.35	0.07	0.54	1	1.35	1.47	1.25	0.66	-0.22	-1.27	-2.35	-3.46	-4.63	-5.85	-7.03	-7.92	-8.23	-7.85	-6.94	-5.93	-5.33	-5.44	-6.13	-6.91	-7.17	-6.5	-4.85	-2.55	-0.12	2	3.56	4.49	4.77	4.4	3.4	1.82	-0.12	-2.05	-3.55	-4.24	-3.95	-2.76	-0.94	1.06	2.84	4.1	4.79	4.99	4.91	4.75	4.61	4.51	4.44	4.41	4.47	4.67	5.04	5.48	5.82	5.86	5.46	4.57	3.32	1.95	0.81	0.23	0.46	1.59	3.54	6.03	8.71	11.2	13.21	14.54	15.13	15	14.25	13.04
-7.03	-7.92	-8.23	-7.85	-6.94	-5.93	-5.33	-5.44	-6.13	-6.91	-7.17	-6.5	-4.85	-2.55	-0.12	2	3.56	4.49	4.77	4.4	3.4	1.82	-0.12	-2.05	-3.55	-4.24	-3.95	-2.76	-0.94	1.06	2.84	4.1	4.79	4.99	4.91	4.75	4.61	4.51	4.44	4.41	4.47	4.67	5.04	5.48	5.82	5.86	5.46	4.57	3.32	1.95	0.81	0.23	0.46	1.59	3.54	6.03	8.71	11.2	13.21	14.54	15.13	15	14.25	13.04	11.6	10.18	9.04	8.31	8	7.96	7.95	7.8	7.39	6.76	6.01	5.27	4.64	4.12	3.68	3.2	2.6	1.79	0.78	-0.33	-1.41	-2.29	-2.96	-3.49	-4.03	-4.77	-5.77	-7.01	-8.41	-9.86	-11.25	-12.39	-13.03	-12.87	-11.69	-9.5	-6.56	-3.38	-0.45	1.86	3.43	4.3	4.64	4.58	4.18	3.5	2.6	1.63	0.76	0.12	-0.22	-0.26	-0.12	0.11	0.32	0.46	0.54	0.6	0.66	0.75	0.87	1.04	1.24	1.45
11.6	10.18	9.04	8.31	8	7.96	7.95	7.8	7.39	6.76	6.01	5.27	4.64	4.12	3.68	3.2	2.6	1.79	0.78	-0.33	-1.41	-2.29	-2.96	-3.49	-4.03	-4.77	-5.77	-7.01	-8.41	-9.86	-11.25	-12.39	-13.03	-12.87	-11.69	-9.5	-6.56	-3.38	-0.45	1.86	3.43	4.3	4.64	4.58	4.18	3.5	2.6	1.63	0.76	0.12	-0.22	-0.26	-0.12	0.11	0.32	0.46	0.54	0.6	0.66	0.75	0.87	1.04	1.24	1.45	1.6	1.63	1.47	1.11	0.57	-0.1	-0.86	-1.7	-2.65	-3.68	-4.77	-5.86	-6.87	-7.71	-8.24	-8.31	-7.75	-6.45	-4.41	-1.78	1.18	4.14	6.78	8.84	10.17	10.7	10.44	9.55	8.22	6.7	5.21	3.95	3	2.4	2.12	2.07	2.13	2.17	2.09	1.89	1.64	1.4	1.22	1.07	0.9	0.64	0.26	-0.25	-0.86	-1.52	-2.2	-2.87	-3.5	-4.07	-4.63	-5.23	-5.94	-6.81	-7.85	-9	-10.09	-10.89	-11.09	-10.43
1.6	1.63	1.47	1.11	0.57	-0.1	-0.86	-1.7	-2.65	-3.68	-4.77	-5.86	-6.87	-7.71	-8.24	-8.31	-7.75	-6.45	-4.41	-1.78	1.18	4.14	6.78	8.84	10.17	10.7	10.44	9.55	8.22	6.7	5.21	3.95	3	2.4	2.12	2.07	2.13	2.17	2.09	1.89	1.64	1.4	1.22	1.07	0.9	0.64	0.26	-0.25	-0.86	-1.52	-2.2	-2.87	-3.5	-4.07	-4.63	-5.23	-5.94	-6.81	-7.85	-9	-10.09	-10.89	-11.09	-10.43	-8.81	-6.32	-3.33	-0.31	2.29	4.21	5.41	6.07	6.39	6.51	6.43	6.05	5.35	4.39	3.36	2.51	2.02	1.93	2.12	2.39	2.53	2.48	2.27	2.04	1.94	2.03	2.24	2.41	2.34	1.92	1.13	0.09	-1.03	-2.07	-2.94	-3.61	-4.12	-4.52	-4.88	-5.23	-5.62	-6.07	-6.53	-6.92	-7.07	-6.8	-5.96	-4.53	-2.65	-0.6	1.31	2.81	3.75	4.12	3.95	3.34	2.37	1.19	0.02	-0.9	-1.4	-1.42	-1.06	-0.54
-8.81	-6.32	-3.33	-0.31	2.29	4.21	5.41	6.07	6.39	6.51	6.43	6.05	5.35	4.39	3.36	2.51	2.02	1.93	2.12	2.39	2.53	2.48	2.27	2.04	1.94	2.03	2.24	2.41	2.34	1.92	1.13	0.09	-1.03	-2.07	-2.94	-3.61	-4.12	-4.52	-4.88	-5.23	-5.62	-6.07	-6.53	-6.92	-7.07	-6.8	-5.96	-4.53	-2.65	-0.6	1.31	2.81	3.75	4.12	3.95	3.34	2.37	1.19	0.02	-0.9	-1.4	-1.42	-1.06	-0.54	-0.03	0.4	0.81	1.33	2.04	2.91	3.8	4.54	5.04	5.28	5.37	5.46	5.73	6.35	7.42	8.88	10.55	12.03	12.88	12.69	11.2	8.44	4.71	0.5	-3.6	-7.05	-9.42	-10.46	-10.17	-8.69	-6.39	-3.67	-0.97	1.35	3.03	3.95	4.09	3.52	2.38	0.88	-0.67	-1.97	-2.78	-2.97	-2.63	-1.95	-1.19	-0.56	-0.11	0.22	0.55	0.94	1.41	1.88	2.24	2.42	2.35	2.02	1.44	0.63	-0.36	-1.45	-2.5	-3.4
-0.03	0.4	0.81	1.33	2.04	2.91	3.8	4.54	5.04	5.28	5.37	5.46	5.73	6.35	7.42	8.88	10.55	12.03	12.88	12.69	11.2	8.44	4.71	0.5	-3.6	-7.05	-9.42	-10.46	-10.17	-8.69	-6.39	-3.67	-0.97	1.35	3.03	3.95	4.09	3.52	2.38	0.88	-0.67	-1.97	-2.78	-2.97	-2.63	-1.95	-1.19	-0.56	-0.11	0.22	0.55	0.94	1.41	1.88	2.24	2.42	2.35	2.02	1.44	0.63	-0.36	-1.45	-2.5	-3.4	-4.15	-4.85	-5.68	-6.78	-8.11	-9.42	-10.34	-10.48	-9.64	-7.92	-5.63	-3.21	-1.04	0.62	1.7	2.18	2.09	1.5	0.56	-0.48	-1.33	-1.71	-1.52	-0.82	0.16	1.19	2.07	2.75	3.23	3.53	3.66	3.57	3.27	2.79	2.28	1.87	1.6	1.43	1.21	0.77	0.01	-1.07	-2.37	-3.76	-5.13	-6.43	-7.66	-8.84	-9.96	-10.92	-11.55	-11.6	-10.91	-9.42	-7.29	-4.83	-2.44	-0.44	1.01	1.9	2.37	2.55	2.51	2.25
-4.15	-4.85	-5.68	-6.78	-8.11	-9.42	-10.34	-10.48	-9.64	-7.92	-5.63	-3.21	-1.04	0.62	1.7	2.18	2.09	1.5	0.56	-0.48	-1.33	-1.71	-1.52	-0.82	0.16	1.19	2.07	2.75	3.23	3.53	3.66	3.57	3.27	2.79	2.28	1.87	1.6	1.43	1.21	0.77	0.01	-1.07	-2.37	-3.76	-5.13	-6.43	-7.66	-8.84	-9.96	-10.92	-11.55	-11.6	-10.91	-9.42	-7.29	-4.83	-2.44	-0.44	1.01	1.9	2.37	2.55	2.51	2.25	1.76	1.12	0.44	-0.12	-0.46	-0.57	-0.53	-0.45	-0.4	-0.37	-0.3	-0.1	0.24	0.64	0.93	0.99	0.73	0.16	-0.63	-1.51	-2.36	-3.09	-3.64	-4.04	-4.37	-4.76	-5.33	-6.17	-7.26	-8.53	-9.78	-10.8	-11.36	-11.24	-10.29	-8.46	-5.89	-2.88	0.17	2.84	4.86	6.19	6.96	7.39	7.67	7.87	7.95	7.82	7.42	6.75	5.85	4.84	3.84	2.96	2.27	1.82	1.58	1.47	1.43	1.35	1.23	1.07	0.88	0.67
1.76	1.12	0.44	-0.12	-0.46	-0.57	-0.53	-0.45	-0.4	-0.37	-0.3	-0.1	0.24	0.64	0.93	0.99	0.73	0.16	-0.63	-1.51	-2.36	-3.09	-3.64	-4.04	-4.37	-4.76	-5.33	-6.17	-7.26	-8.53	-9.78	-10.8	-11.36	-11.24	-10.29	-8.46	-5.89	-2.88	0.17	2.84	4.86	6.19	6.96	7.39	7.67	7.87	7.95	7.82	7.42	6.75	5.85	4.84	3.84	2.96	2.27	1.82	1.58	1.47	1.43	1.35	1.23	1.07	0.88	0.67	0.43	0.11	-0.34	-0.96	-1.83	-2.99	-4.47	-6.2	-8.04	-9.72	-10.94	-11.38	-10.85	-9.33	-6.99	-4.16	-1.22	1.45	3.59	5.08	5.93	6.18	5.92	5.27	4.36	3.38	2.5	1.87	1.49	1.33	1.29	1.32	1.41	1.58	1.82	2.06	2.16	2.04	1.66	1.08	0.42	-0.25	-0.92	-1.6	-2.29	-2.96	-3.55	-4.07	-4.58	-5.19	-5.97	-6.88	-7.71	-8.15	-7.87	-6.67	-4.52	-1.63	1.66	4.95	7.86	10.1	11.51	12.08
0.43	0.11	-0.34	-0.96	-1.83	-2.99	-4.47	-6.2	-8.04	-9.72	-10.94	-11.38	-10.85	-9.33	-6.99	-4.16	-1.22	1.45	3.59	5.08	5.93	6.18	5.92	5.27	4.36	3.38	2.5	1.87	1.49	1.33	1.29	1.32	1.41	1.58	1.82	2.06	2.16	2.04	1.66	1.08	0.42	-0.25	-0.92	-1.6	-2.29	-2.96	-3.55	-4.07	-4.58	-5.19	-5.97	-6.88	-7.71	-8.15	-7.87	-6.67	-4.52	-1.63	1.66	4.95	7.86	10.1	11.51	12.08	11.94	11.32	10.45	9.57	8.84	8.34	8.12	8.16	8.44	8.91	9.51	10.15	10.7	11.06	11.12	10.82	10.18	9.25	8.15	6.98	5.83	4.7	3.54	2.28	0.85	-0.73	-2.41	-4.15	-5.87	-7.56	-9.15	-10.5	-11.39	-11.56	-10.84	-9.15	-6.65	-3.64	-0.5	2.35	4.58	6	6.56	6.36	5.61	4.59	3.54	2.64	1.99	1.58	1.38	1.32	1.3	1.28	1.22	1.12	1.03	0.95	0.89	0.78	0.55	0.18	-0.33	-0.88
11.94	11.32	10.45	9.57	8.84	8.34	8.12	8.16	8.44	8.91	9.51	10.15	10.7	11.06	11.12	10.82	10.18	9.25	8.15	6.98	5.83	4.7	3.54	2.28	0.85	-0.73	-2.41	-4.15	-5.87	-7.56	-9.15	-10.5	-11.39	-11.56	-10.84	-9.15	-6.65	-3.64	-0.5	2.35	4.58	6	6.56	6.36	5.61	4.59	3.54	2.64	1.99	1.58	1.38	1.32	1.3	1.28	1.22	1.12	1.03	0.95	0.89	0.78	0.55	0.18	-0.33	-0.88	-1.39	-1.82	-2.21	-2.67	-3.32	-4.23	-5.33	-6.51	-7.63	-8.57	-9.22	-9.49	-9.27	-8.4	-6.82	-4.56	-1.83	1.04	3.64	5.65	6.85	7.21	6.79	5.8	4.47	3.05	1.74	0.67	-0.13	-0.7	-1.12	-1.46	-1.75	-1.97	-2.08	-2.07	-1.99	-1.93	-2.06	-2.52	-3.46	-4.91	-6.79	-8.86	-10.8	-12.27	-13.03	-13.04	-12.44	-11.52	-10.59	-9.85	-9.3	-8.77	-8.05	-6.92	-5.31	-3.26	-0.93	1.49	3.78	5.78	7.4	8.61
-1.39	-1.82	-2.21	-2.67	-3.32	-4.23	-5.33	-6.51	-7.63	-8.57	-9.22	-9.49	-9.27	-8.4	-6.82	-4.56	-1.83	1.04	3.64	5.65	6.85	7.21	6.79	5.8	4.47	3.05	1.74	0.67	-0.13	-0.7	-1.12	-1.46	-1.75	-1.97	-2.08	-2.07	-1.99	-1.93	-2.06	-2.52	-3.46	-4.91	-6.79	-8.86	-10.8	-12.27	-13.03	-13.04	-12.44	-11.52	-10.59	-9.85	-9.3	-8.77	-8.05	-6.92	-5.31	-3.26	-0.93	1.49	3.78	5.78	7.4	8.61	9.48	10.11	10.55	10.79	10.76	10.42	9.86	9.27	8.91	8.98	9.48	10.24	10.99	11.47	11.57	11.27	10.64	9.73	8.6	7.28	5.8	4.25	2.73	1.32	0.05	-1.1	-2.21	-3.39	-4.77	-6.38	-8.18	-9.94	-11.35	-12.09	-11.95	-10.92	-9.21	-7.17	-5.19	-3.59	-2.52	-1.99	-1.94	-2.25	-2.84	-3.63	-4.55	-5.52	-6.4	-7.06	-7.4	-7.36	-6.91	-6.09	-4.98	-3.65	-2.21	-0.79	0.46	1.42	1.97	2.04	1.63	0.75
9.48	10.11	10.55	10.79	10.76	10.42	9.86	9.27	8.91	8.98	9.48	10.24	10.99	11.47	11.57	11.27	10.64	9.73	8.6	7.28	5.8	4.25	2.73	1.32	0.05	-1.1	-2.21	-3.39	-4.77	-6.38	-8.18	-9.94	-11.35	-12.09	-11.95	-10.92	-9.21	-7.17	-5.19	-3.59	-2.52	-1.99	-1.94	-2.25	-2.84	-3.63	-4.55	-5.52	-6.4	-7.06	-7.4	-7.36	-6.91	-6.09	-4.98	-3.65	-2.21	-0.79	0.46	1.42	1.97	2.04	1.63	0.75	-0.52	-2.04	-3.62	-5.08	-6.31	-7.27	-7.98	-8.47	-8.67	-8.44	-7.58	-5.93	-3.48	-0.42	2.91	6.09	8.76	10.71	11.91	12.43	12.43	12.03	11.33	10.42	9.41	8.47	7.78	7.42	7.36	7.45	7.45	7.18	6.59	5.74	4.8	3.91	3.15	2.54	2.05	1.62	1.22	0.77	0.23	-0.53	-1.57	-2.9	-4.4	-5.85	-6.97	-7.47	-7.19	-6.09	-4.29	-2.03	0.4	2.66	4.47	5.63	6.06	5.85	5.15	4.17	3.06	1.94
-0.52	-2.04	-3.62	-5.08	-6.31	-7.27	-7.98	-8.47	-8.67	-8.44	-7.58	-5.93	-3.48	-0.42	2.91	6.09	8.76	10.71	11.91	12.43	12.43	12.03	11.33	10.42	9.41	8.47	7.78	7.42	7.36	7.45	7.45	7.18	6.59	5.74	4.8	3.91	3.15	2.54	2.05	1.62	1.22	0.77	0.23	-0.53	-1.57	-2.9	-4.4	-5.85	-6.97	-7.47	-7.19	-6.09	-4.29	-2.03	0.4	2.66	4.47	5.63	6.06	5.85	5.15	4.17	3.06	1.94	0.88	-0.07	-0.87	-1.48	-1.91	-2.17	-2.31	-2.34	-2.22	-1.92	-1.45	-0.92	-0.54	-0.52	-0.99	-1.91	-3.04	-4.07	-4.74	-4.91	-4.63	-4.07	-3.44	-2.93	-2.7	-2.78	-3.16	-3.68	-4.09	-4.09	-3.41	-1.94	0.21	2.73	5.2	7.29	8.78	9.63	9.88	9.62	8.88	7.7	6.15	4.43	2.81	1.54	0.8	0.57	0.71	1.05	1.46	1.93	2.55	3.33	4.26	5.19	5.9	6.2	6.01	5.37	4.44	3.46	2.61	2.02
0.88	-0.07	-0.87	-1.48	-1.91	-2.17	-2.31	-2.34	-2.22	-1.92	-1.45	-0.92	-0.54	-0.52	-0.99	-1.91	-3.04	-4.07	-4.74	-4.91	-4.63	-4.07	-3.44	-2.93	-2.7	-2.78	-3.16	-3.68	-4.09	-4.09	-3.41	-1.94	0.21	2.73	5.2	7.29	8.78	9.63	9.88	9.62	8.88	7.7	6.15	4.43	2.81	1.54	0.8	0.57	0.71	1.05	1.46	1.93	2.55	3.33	4.26	5.19	5.9	6.2	6.01	5.37	4.44	3.46	2.61	2.02	1.64	1.31	0.83	0	-1.2	-2.68	-4.23	-5.61	-6.62	-7.1	-6.96	-6.13	-4.63	-2.58	-0.2	2.19	4.28	5.81	6.65	6.85	6.59	6.12	5.66	5.37	5.26	5.24	5.19	5	4.66	4.26	3.91	3.71	3.65	3.66	3.57	3.25	2.63	1.75	0.72	-0.31	-1.22	-1.94	-2.45	-2.78	-2.96	-3.06	-3.17	-3.38	-3.81	-4.56	-5.68	-7.16	-8.86	-10.52	-11.77	-12.26	-11.69	-10.03	-7.51	-4.56	-1.66	0.8	2.64	3.88
1.64	1.31	0.83	0	-1.2	-2.68	-4.23	-5.61	-6.62	-7.1	-6.96	-6.13	-4.63	-2.58	-0.2	2.19	4.28	5.81	6.65	6.85	6.59	6.12	5.66	5.37	5.26	5.24	5.19	5	4.66	4.26	3.91	3.71	3.65	3.66	3.57	3.25	2.63	1.75	0.72	-0.31	-1.22	-1.94	-2.45	-2.78	-2.96	-3.06	-3.17	-3.38	-3.81	-4.56	-5.68	-7.16	-8.86	-10.52	-11.77	-12.26	-11.69	-10.03	-7.51	-4.56	-1.66	0.8	2.64	3.88	4.66	5.12	5.34	5.35	5.13	4.68	4.01	3.17	2.3	1.6	1.29	1.53	2.3	3.43	4.63	5.62	6.24	6.45	6.3	5.81	4.96	3.69	2.07	0.25	-1.53	-3.02	-4.12	-4.87	-5.38	-5.74	-5.94	-5.93	-5.62	-5.06	-4.37	-3.73	-3.3	-3.08	-2.96	-2.71	-2.2	-1.36	-0.33	0.71	1.56	2.1	2.37	2.48	2.51	2.47	2.32	1.98	1.46	0.89	0.47	0.37	0.65	1.22	1.86	2.34	2.55	2.52	2.36	2.22
4.66	5.12	5.34	5.35	5.13	4.68	4.01	3.17	2.3	1.6	1.29	1.53	2.3	3.43	4.63	5.62	6.24	6.45	6.3	5.81	4.96	3.69	2.07	0.25	-1.53	-3.02	-4.12	-4.87	-5.38	-5.74	-5.94	-5.93	-5.62	-5.06	-4.37	-3.73	-3.3	-3.08	-2.96	-2.71	-2.2	-1.36	-0.33	0.71	1.56	2.1	2.37	2.48	2.51	2.47	2.32	1.98	1.46	0.89	0.47	0.37	0.65	1.22	1.86	2.34	2.55	2.52	2.36	2.22	2.18	2.21	2.2	2.02	1.6	0.92	0.05	-0.88	-1.76	-2.5	-3.05	-3.37	-3.47	-3.4	-3.23	-3.06	-2.98	-3.04	-3.23	-3.47	-3.59	-3.46	-2.96	-2.05	-0.79	0.7	2.25	3.73	5	5.97	6.55	6.7	6.4	5.68	4.58	3.24	1.79	0.45	-0.59	-1.22	-1.38	-1.2	-0.86	-0.55	-0.42	-0.51	-0.76	-1.06	-1.33	-1.54	-1.72	-1.87	-1.97	-1.97	-1.84	-1.62	-1.41	-1.37	-1.61	-2.1	-2.67	-3.1	-3.23	-3.07
2.18	2.21	2.2	2.02	1.6	0.92	0.05	-0.88	-1.76	-2.5	-3.05	-3.37	-3.47	-3.4	-3.23	-3.06	-2.98	-3.04	-3.23	-3.47	-3.59	-3.46	-2.96	-2.05	-0.79	0.7	2.25	3.73	5	5.97	6.55	6.7	6.4	5.68	4.58	3.24	1.79	0.45	-0.59	-1.22	-1.38	-1.2	-0.86	-0.55	-0.42	-0.51	-0.76	-1.06	-1.33	-1.54	-1.72	-1.87	-1.97	-1.97	-1.84	-1.62	-1.41	-1.37	-1.61	-2.1	-2.67	-3.1	-3.23	-3.07	-2.8	-2.71	-3.02	-3.76	-4.76	-5.73	-6.34	-6.38	-5.77	-4.57	-2.93	-1.03	0.94	2.82	4.45	5.69	6.42	6.56	6.11	5.19	4	2.8	1.82	1.2	0.95	0.95	1.05	1.11	1.03	0.83	0.55	0.26	0.02	-0.14	-0.2	-0.22	-0.23	-0.34	-0.58	-0.95	-1.41	-1.86	-2.26	-2.65	-3.16	-3.91	-4.95	-6.2	-7.49	-8.62	-9.46	-9.91	-9.94	-9.46	-8.36	-6.57	-4.14	-1.27	1.72	4.49	6.83	8.66	10.05	11.11
-2.8	-2.71	-3.02	-3.76	-4.76	-5.73	-6.34	-6.38	-5.77	-4.57	-2.93	-1.03	0.94	2.82	4.45	5.69	6.42	6.56	6.11	5.19	4	2.8	1.82	1.2	0.95	0.95	1.05	1.11	1.03	0.83	0.55	0.26	0.02	-0.14	-0.2	-0.22	-0.23	-0.34	-0.58	-0.95	-1.41	-1.86	-2.26	-2.65	-3.16	-3.91	-4.95	-6.2	-7.49	-8.62	-9.46	-9.91	-9.94	-9.46	-8.36	-6.57	-4.14	-1.27	1.72	4.49	6.83	8.66	10.05	11.11	11.89	12.41	12.63	12.51	12.04	11.26	10.23	9.03	7.7	6.27	4.76	3.21	1.74	0.52	-0.32	-0.75	-0.91	-1.06	-1.45	-2.2	-3.24	-4.33	-5.24	-5.83	-6.16	-6.4	-6.74	-7.3	-8.09	-9.04	-10.04	-10.94	-11.6	-11.83	-11.47	-10.39	-8.57	-6.14	-3.34	-0.5	2.05	4.01	5.23	5.68	5.49	4.88	4.09	3.32	2.72	2.31	2.09	2.02	2.04	2.1	2.18	2.27	2.43	2.69	3.05	3.41	3.62	3.53	3.07	2.26
11.89	12.41	12.63	12.51	12.04	11.26	10.23	9.03	7.7	6.27	4.76	3.21	1.74	0.52	-0.32	-0.75	-0.91	-1.06	-1.45	-2.2	-3.24	-4.33	-5.24	-5.83	-6.16	-6.4	-6.74	-7.3	-8.09	-9.04	-10.04	-10.94	-11.6	-11.83	-11.47	-10.39	-8.57	-6.14	-3.34	-0.5	2.05	4.01	5.23	5.68	5.49	4.88	4.09	3.32	2.72	2.31	2.09	2.02	2.04	2.1	2.18	2.27	2.43	2.69	3.05	3.41	3.62	3.53	3.07	2.26	1.24	0.16	-0.86	-1.74	-2.5	-3.16	-3.82	-4.56	-5.47	-6.57	-7.87	-9.27	-10.63	-11.74	-12.36	-12.29	-11.39	-9.66	-7.22	-4.36	-1.45	1.16	3.22	4.63	5.41	5.66	5.48	4.96	4.17	3.22	2.27	1.51	1.09	1.11	1.52	2.2	2.95	3.58	3.96	4.06	3.88	3.47	2.91	2.25	1.55	0.85	0.16	-0.54	-1.23	-1.9	-2.53	-3.09	-3.65	-4.31	-5.21	-6.39	-7.82	-9.31	-10.62	-11.5	-11.75	-11.26	-9.99	-7.98
1.24	0.16	-0.86	-1.74	-2.5	-3.16	-3.82	-4.56	-5.47	-6.57	-7.87	-9.27	-10.63	-11.74	-12.36	-12.29	-11.39	-9.66	-7.22	-4.36	-1.45	1.16	3.22	4.63	5.41	5.66	5.48	4.96	4.17	3.22	2.27	1.51	1.09	1.11	1.52	2.2	2.95	3.58	3.96	4.06	3.88	3.47	2.91	2.25	1.55	0.85	0.16	-0.54	-1.23	-1.9	-2.53	-3.09	-3.65	-4.31	-5.21	-6.39	-7.82	-9.31	-10.62	-11.5	-11.75	-11.26	-9.99	-7.98	-5.39	-2.5	0.35	2.78	4.57	5.68	6.28	6.64	6.98	7.38	7.76	7.97	7.9	7.52	6.93	6.25	5.58	5	4.54	4.2	3.98	3.85	3.72	3.48	3.01	2.27	1.29	0.22	-0.72	-1.37	-1.63	-1.56	-1.31	-1.11	-1.16	-1.62	-2.48	-3.65	-4.88	-5.91	-6.44	-6.25	-5.25	-3.51	-1.29	1.1	3.3	5.08	6.27	6.83	6.78	6.16	5.07	3.69	2.23	0.91	-0.13	-0.81	-1.15	-1.19	-0.93	-0.41	0.37	1.33
-5.39	-2.5	0.35	2.78	4.57	5.68	6.28	6.64	6.98	7.38	7.76	7.97	7.9	7.52	6.93	6.25	5.58	5	4.54	4.2	3.98	3.85	3.72	3.48	3.01	2.27	1.29	0.22	-0.72	-1.37	-1.63	-1.56	-1.31	-1.11	-1.16	-1.62	-2.48	-3.65	-4.88	-5.91	-6.44	-6.25	-5.25	-3.51	-1.29	1.1	3.3	5.08	6.27	6.83	6.78	6.16	5.07	3.69	2.23	0.91	-0.13	-0.81	-1.15	-1.19	-0.93	-0.41	0.37	1.33	2.35	3.3	4.09	4.63	4.9	4.9	4.63	4.11	3.36	2.43	1.41	0.35	-0.69	-1.71	-2.73	-3.8	-4.91	-6.02	-6.97	-7.55	-7.56	-6.87	-5.5	-3.63	-1.57	0.35	1.85	2.77	3.05	2.77	2.09	1.15	0.09	-1	-2.1	-3.19	-4.24	-5.2	-5.99	-6.57	-6.93	-7.14	-7.28	-7.35	-7.3	-7.04	-6.51	-5.77	-4.93	-4.16	-3.57	-3.18	-2.92	-2.7	-2.47	-2.23	-2.08	-2.08	-2.28	-2.6	-2.91	-3	-2.64	-1.74
2.35	3.3	4.09	4.63	4.9	4.9	4.63	4.11	3.36	2.43	1.41	0.35	-0.69	-1.71	-2.73	-3.8	-4.91	-6.02	-6.97	-7.55	-7.56	-6.87	-5.5	-3.63	-1.57	0.35	1.85	2.77	3.05	2.77	2.09	1.15	0.09	-1	-2.1	-3.19	-4.24	-5.2	-5.99	-6.57	-6.93	-7.14	-7.28	-7.35	-7.3	-7.04	-6.51	-5.77	-4.93	-4.16	-3.57	-3.18	-2.92	-2.7	-2.47	-2.23	-2.08	-2.08	-2.28	-2.6	-2.91	-3	-2.64	-1.74	-0.36	1.27	2.8	3.93	4.52	4.68	4.63	4.54	4.46	4.29	3.92	3.31	2.6	2.03	1.77	1.81	1.97	1.96	1.6	0.91	0.06	-0.68	-1.09	-1.12	-0.82	-0.31	0.27	0.77	1.09	1.14	0.86	0.24	-0.65	-1.64	-2.5	-2.98	-2.9	-2.19	-0.94	0.62	2.22	3.56	4.49	4.92	4.89	4.48	3.83	3.08	2.36	1.8	1.48	1.4	1.47	1.54	1.5	1.32	1.02	0.7	0.43	0.25	0.15	0.13	0.14	0.18
-0.36	1.27	2.8	3.93	4.52	4.68	4.63	4.54	4.46	4.29	3.92	3.31	2.6	2.03	1.77	1.81	1.97	1.96	1.6	0.91	0.06	-0.68	-1.09	-1.12	-0.82	-0.31	0.27	0.77	1.09	1.14	0.86	0.24	-0.65	-1.64	-2.5	-2.98	-2.9	-2.19	-0.94	0.62	2.22	3.56	4.49	4.92	4.89	4.48	3.83	3.08	2.36	1.8	1.48	1.4	1.47	1.54	1.5	1.32	1.02	0.7	0.43	0.25	0.15	0.13	0.14	0.18	0.25	0.32	0.32	0.17	-0.2	-0.82	-1.64	-2.54	-3.41	-4.09	-4.45	-4.42	-3.91	-2.9	-1.42	0.38	2.26	3.94	5.2	5.91	6.11	5.95	5.59	5.18	4.78	4.42	4.08	3.79	3.59	3.51	3.59	3.8	4.09	4.35	4.45	4.3	3.83	3.09	2.2	1.3	0.51	-0.12	-0.66	-1.23	-1.97	-2.95	-4.17	-5.54	-6.93	-8.16	-9.06	-9.47	-9.35	-8.72	-7.71	-6.43	-4.99	-3.47	-1.89	-0.3	1.24	2.66	3.91	4.98
