1663881646.00
64.000000
-0.00
-0.00
-0.00
-0.00
-0.00
-0.00
-0.00
-0.00
-0.00
-0.00
0.00
0.01
0.01
-0.00
-0.03
-0.05
-0.05
0.00
0.13
0.36
0.66
1.01
1.37
1.72
2.06
2.40
2.79
3.24
3.80
4.42
5.06
5.66
6.20
6.68
7.15
7.68
8.31
9.14
10.09
11.04
11.88
12.56
13.14
13.76
14.65
15.96
17.91
20.32
22.90
25.38
27.58
29.57
31.68
34.32
37.81
42.54
48.15
54.10
59.83
64.97
69.58
74.14
79.34
85.71
93.76
103.00
112.62
121.73
129.77
136.75
143.30
150.75
157.77
166.64
177.95
191.79
206.97
220.57
228.25
225.36
208.53
176.87
132.76
80.05
23.07
-34.94
-92.44
-149.16
-205.23
-260.37
-313.74
-363.87
-409.83
-450.91
-486.50
-515.74
-537.23
-549.22
-549.96
-538.37
-514.21
-478.67
-433.88
-382.45
-327.02
-269.84
-212.63
-156.66
-102.95
-52.37
-5.90
35.58
71.43
101.35
125.50
144.38
158.69
169.15
176.37
180.75
182.57
182.07
179.51
175.23
169.65
163.18
156.15
148.81
141.30
133.69
126.02
118.33
110.69
103.16
95.80
88.68
81.83
75.25
68.95
62.95
57.25
51.86
46.78
42.03
37.59
33.45
29.61
26.07
22.81
19.83
17.11
14.67
12.48
10.54
8.83
7.35
6.07
4.97
4.05
3.27
2.62
2.09
1.65
1.30
1.01
0.79
0.61
0.48
0.37
0.29
0.24
0.20
0.18
0.17
0.17
0.19
0.21
0.23
0.26
0.30
0.34
0.38
0.43
0.47
0.52
0.56
0.61
0.67
0.73
0.79
0.86
0.93
1.01
1.10
1.21
1.32
1.45
1.58
1.74
1.92
2.11
2.32
2.56
2.82
3.11
3.42
3.78
4.16
4.58
5.03
5.52
6.04
6.61
7.22
7.87
8.56
9.30
10.08
10.91
11.78
12.70
13.66
14.69
15.78
16.93
18.14
19.40
20.65
21.87
22.96
23.83
24.36
24.43
23.94
22.79
20.93
18.37
15.18
11.40
7.23
2.85
-1.52
-5.67
-9.40
-12.58
-15.10
-16.95
-18.16
-18.79
-18.96
-18.75
-18.24
-17.51
-16.62
-15.62
-14.55
-13.43
-12.24
-10.98
-9.59
-8.02
-6.21
-4.13
-1.85
0.56
2.97
5.36
7.57
9.60
11.53
13.48
15.51
17.59
19.62
21.50
23.24
24.66
25.88
27.15
28.73
30.73
33.02
35.25
37.07
38.33
38.65
38.24
37.57
37.17
37.32
37.84
38.21
37.80
36.27
33.04
28.25
22.40
15.99
9.05
0.95
-9.82
-25.75
-44.98
-67.90
-94.77
-125.06
-156.79
-186.39
-209.25
-221.01
-219.04
-203.33
-177.29
-145.66
-113.12
-83.08
-57.21
-35.85
-18.70
-5.43
4.27
10.31
13.29
14.44
15.31
17.24
20.94
26.26
32.26
37.75
41.37
42.57
41.56
39.13
36.12
33.02
29.88
26.38
22.22
17.10
10.98
3.96
-3.88
-12.42
-21.31
-29.77
-36.55
-40.20
-39.56
-34.17
-24.42
-11.56
2.70
16.57
28.51
37.54
43.22
45.72
45.56
43.47
40.14
36.12
31.79
27.46
23.45
20.17
18.00
17.16
17.53
18.68
19.95
20.66
20.28
18.63
15.83
12.31
8.53
4.87
1.41
-2.04
-5.85
-10.48
-16.29
-23.41
-31.62
-40.25
-48.11
-53.58
-55.06
-51.44
-42.62
-29.64
-14.44
0.72
14.00
24.38
31.76
36.64
39.66
41.32
41.86
41.34
39.90
37.80
35.43
33.30
31.82
31.18
31.31
31.84
32.23
31.96
30.71
28.42
25.31
21.64
17.66
13.48
9.07
4.40
-0.53
-5.69
-11.13
-17.01
-23.55
-30.75
-38.20
-44.88
-49.37
-50.31
-46.89
-39.22
-28.32
-15.82
-3.48
7.29
15.71
21.58
25.21
27.11
27.84
27.81
27.25
26.22
24.72
22.76
20.49
18.16
16.05
14.40
13.26
12.48
11.77
10.78
9.21
6.88
3.80
0.11
-3.97
-8.18
-12.33
-16.30
-20.10
-23.93
-28.17
-33.27
-39.51
-46.76
-54.26
-60.61
-64.17
-63.53
-58.04
-48.04
-34.82
-20.15
-5.72
7.22
18.06
26.65
33.11
37.56
40.07
40.73
39.73
37.42
34.32
31.00
27.96
25.56
23.96
23.11
22.79
22.68
22.43
21.76
20.50
18.58
15.99
12.77
9.01
4.78
0.18
-4.77
-10.09
-15.84
-22.10
-28.75
-35.38
-41.23
-45.19
-46.13
-43.13
-35.81
-24.57
-10.48
4.89
19.97
33.55
45.03
54.37
61.91
67.98
72.73
76.17
78.27
79.24
79.57
79.96
81.07
83.24
86.48
90.43
94.83
99.66
105.33
112.33
120.85
130.29
139.27
145.98
148.93
147.65
142.78
135.74
127.95
119.93
111.02
99.54
83.59
61.94
34.73
3.61
-28.70
-59.12
-84.84
-103.71
-114.26
-115.70
-108.05
-92.65
-72.40
-51.59
-34.68
-24.86
-22.65
-25.82
-30.55
-33.32
-32.53
-29.03
-25.16
-23.25
-24.28
-27.50
-31.13
-33.51
-34.00
-33.19
-32.46
-33.11
-35.75
-40.10
-45.17
-49.75
-53.00
-54.62
-54.89
-54.42
-53.79
-53.37
-53.18
-53.05
-52.73
-52.06
-51.02
-49.74
-48.50
-47.60
-47.27
-47.67
-48.85
-50.70
-52.90
-54.66
-54.58
-50.96
-42.46
-28.98
-12.30
4.19
16.62
22.16
20.19
12.44
2.05
-7.88
-15.49
-20.50
-23.59
-25.56
-26.62
-26.41
-24.49
-20.86
-16.27
-11.90
-8.88
-7.74
-8.24
-9.56
-10.69
-11.02
-10.59
-10.04
-10.25
-11.96
-15.37
-20.07
-25.19
-29.77
-33.06
-34.76
-35.24
-35.37
-36.31
-39.13
-44.38
-51.98
-61.19
-70.77
-79.26
-85.26
-87.60
-85.60
-79.14
-68.72
-55.31
-40.23
-24.89
-10.64
1.40
10.54
16.62
20.01
21.51
22.07
22.47
23.16
24.21
25.52
27.02
28.79
30.97
33.59
36.50
39.29
41.55
42.91
43.21
42.53
41.34
40.59
41.60
45.82
54.27
67.25
84.06
103.07
121.92
137.77
147.72
149.45
142.07
126.51
105.42
82.26
60.12
40.76
24.38
10.19
-2.63
-14.27
-24.27
-31.98
-37.21
-40.36
-42.15
-43.14
-43.46
-42.88
-41.14
-38.26
-34.60
-30.74
-27.25
-24.45
-22.33
-20.53
-18.52
-15.86
-12.46
-8.74
-5.44
-3.35
-2.85
-3.67
-5.00
-5.80
-5.33
-3.59
-1.29
0.36
0.22
-2.10
-6.04
-10.09
-12.48
-12.03
-8.81
-4.39
-1.38
-2.35
-8.81
-20.57
-35.83
-51.89
-66.07
-76.34
-81.60
-81.53
-76.46
-67.29
-55.44
-42.71
-30.95
-21.57
-15.04
-10.95
-8.33
-6.17
-3.93
-1.67
0.21
1.37
1.76
1.68
1.53
1.62
1.96
2.48
3.08
3.83
4.90
6.40
8.22
10.07
11.53
12.29
12.30
11.72
10.81
9.78
8.68
7.41
5.82
3.82
1.47
-1.07
-3.55
-5.80
-7.86
-10.09
-13.05
-17.30
-23.08
-30.14
-37.69
-44.56
-49.49
-51.44
-49.77
-44.51
-36.31
-26.36
-16.12
-6.91
0.40
5.60
8.98
11.09
12.30
12.74
12.34
11.18
9.65
8.45
8.29
9.53
11.90
14.67
16.91
17.91
17.45
15.75
13.23
10.35
7.41
4.60
2.12
0.22
-0.89
-1.23
-1.16
-1.35
-2.52
-5.16
-9.25
-14.31
-19.61
-24.51
-28.70
-32.34
-35.84
-39.51
-43.25
-46.39
-47.97
-47.13
-43.59
-37.88
-31.17
-24.81
-19.77
-16.33
-14.07
-12.27
-10.31
-7.98
-5.48
-3.12
-0.99
1.06
3.40
6.27
9.53
12.72
15.16
16.27
15.89
14.32
12.26
10.47
9.54
9.67
10.63
11.84
12.59
12.29
10.62
7.65
3.75
-0.57
-4.86
-8.80
-12.37
-15.84
-19.67
-24.46
-30.73
-38.75
-48.27
-58.35
-67.42
-73.63
-75.39
-71.94
-63.58
-51.61
-37.81
-23.92
-11.17
-0.15
9.04
16.52
22.40
26.72
29.50
30.92
31.30
31.05
30.60
30.18
29.91
29.72
29.55
29.36
29.21
29.23
29.52
30.08
30.77
31.29
31.21
30.07
27.49
23.40
18.08
12.23
6.69
2.19
-0.98
-3.14
-5.07
-7.73
-11.87
-17.83
-25.50
-34.37
-43.56
-51.94
-58.15
-60.80
-58.87
-52.06
-41.04
-27.30
-12.76
0.85
12.46
21.75
28.99
34.64
39.05
42.31
44.43
45.50
45.85
45.91
46.08
46.51
46.98
47.06
46.37
44.78
42.53
40.12
38.00
36.44
35.27
34.02
32.11
29.17
25.19
20.55
15.91
11.85
8.65
6.07
3.46
-0.05
-5.23
-12.53
-21.88
-32.75
-44.31
-55.53
-65.25
-72.31
-75.69
-74.61
-68.91
-59.01
-46.03
-31.51
-17.13
-4.38
5.62
12.26
15.37
15.24
12.48
7.88
2.25
-3.80
-9.88
-15.80
-21.47
-26.79
-31.79
-36.61
-41.60
-47.12
-53.13
-59.05
-63.84
-66.60
-66.99
-65.56
-63.42
-61.55
-60.20
-58.84
-56.54
-52.77
-48.11
-44.47
-44.50
-50.35
-62.35
-78.28
-93.78
-103.71
-104.05
-93.33
-72.81
-45.50
-14.34
18.80
53.23
88.39
122.81
153.95
178.99
195.97
204.71
206.71
204.17
198.67
190.49
178.91
163.28
144.21
123.83
104.95
89.43
77.11
65.91
52.95
36.41
16.40
-5.26
-26.23
-44.92
-60.97
-74.77
-86.66
-96.68
-105.04
-112.96
-122.88
-137.63
-158.85
-185.72
-214.82
-241.35
-261.12
-272.09
-274.77
-271.20
-263.22
-251.13
-233.43
-207.73
-172.40
-127.97
-77.45
-25.21
24.60
69.35
108.15
141.14
168.51
190.22
206.28
217.29
224.65
230.26
235.92
242.76
250.98
259.98
268.62
275.47
279.16
278.70
273.85
265.16
253.89
241.38
228.37
214.60
198.89
179.91
157.04
131.02
104.09
79.56
60.86
50.68
49.97
57.31
69.26
81.23
88.96
89.84
83.65
72.20
58.38
45.22
35.02
29.11
27.73
30.19
35.05
40.36
44.25
45.56
44.19
41.06
37.47
34.32
31.77
29.51
27.22
25.01
23.34
22.52
22.46
22.72
22.90
23.03
23.40
23.99
23.96
21.56
14.72
1.94
-16.95
-40.66
-67.12
-94.26
-120.50
-144.80
-166.27
-183.86
-196.26
-202.26
-201.25
-193.50
-180.19
-163.05
-143.82
-123.91
-104.29
-85.64
-68.77
-54.67
-44.41
-38.71
-37.53
-39.91
-44.09
-47.98
-49.78
-48.61
-44.64
-39.01
-33.30
-29.01
-27.03
-27.44
-29.64
-32.74
-36.13
-39.75
-44.15
-50.14
-58.26
-68.49
-80.14
-92.02
-102.82
-111.41
-117.03
-119.36
-118.35
-113.90
-105.78
-93.68
-77.52
-57.82
-35.94
-13.88
6.29
23.22
36.67
47.58
57.30
66.87
76.34
84.85
91.20
94.60
95.15
93.82
91.96
90.65
90.31
90.66
90.89
90.08
87.63
83.64
79.01
75.26
73.83
75.35
79.20
83.64
86.51
86.02
81.26
72.08
58.62
40.96
19.27
-5.64
-31.91
-56.90
-78.03
-93.98
-105.11
-112.92
-118.80
-123.02
-124.54
-121.81
-113.98
-101.54
-86.22
-70.11
-54.73
-40.68
-27.77
-15.63
-4.23
5.99
14.37
20.41
24.04
25.65
25.91
25.55
25.16
25.10
25.51
26.31
27.30
28.31
29.20
29.95
30.55
30.93
30.94
30.40
29.17
27.25
24.80
22.11
19.39
16.68
13.77
10.35
6.18
1.30
-3.91
-9.01
-13.63
-17.81
-21.93
-26.62
-32.44
-39.58
-47.65
-55.71
-62.32
-66.03
-65.72
-61.03
-52.44
-41.16
-28.66
-16.27
-4.84
5.33
14.36
22.47
29.75
36.00
40.78
43.66
44.37
43.01
40.07
36.33
32.62
29.57
27.48
26.32
25.85
25.80
25.98
26.16
26.12
25.53
24.02
21.36
17.68
13.43
9.26
5.73
2.96
0.56
-2.34
-6.60
-12.77
-20.77
-29.96
-39.33
-47.90
-55.06
-60.73
-65.34
-69.72
-74.77
-81.14
-88.96
-97.70
-106.22
-113.06
-116.83
-116.69
-112.64
-105.55
-96.87
-88.21
-80.71
-74.64
-69.29
-63.13
-54.39
-41.81
-25.13
-5.28
16.07
37.13
56.75
74.53
90.66
105.34
118.48
129.55
138.03
143.69
146.77
147.87
147.64
146.50
144.60
141.98
138.63
134.55
129.59
123.48
115.85
106.47
95.45
83.31
70.88
59.08
48.61
39.82
32.64
26.62
21.13
15.53
9.45
2.92
-3.54
-8.94
-12.07
-11.72
-7.15
1.47
12.90
24.91
34.92
40.88
41.85
38.26
31.46
22.92
13.64
3.92
-6.32
-16.96
-27.33
-36.31
-42.75
-46.06
-46.46
-44.79
-42.09
-39.09
-36.05
-32.86
-29.38
-25.67
-22.14
-19.29
-17.50
-16.81
-16.89
-17.24
-17.40
-17.32
-17.24
-17.68
-19.17
-21.94
-25.85
-30.36
-34.74
-38.37
-40.95
-42.68
-44.20
-46.36
-49.89
-55.08
-61.52
-68.10
-73.28
-75.49
-73.66
-67.64
-58.16
-46.58
-34.39
-22.72
-12.18
-2.87
5.23
12.10
17.59
21.56
24.06
25.33
25.77
25.75
25.51
25.13
24.66
24.20
23.95
24.08
24.71
25.75
26.94
27.92
28.37
28.09
27.07
25.44
23.38
21.07
18.62
16.02
13.22
10.12
6.63
2.74
-1.49
-5.96
-10.52
-15.07
-19.62
-24.22
-29.09
-34.55
-40.85
-48.03
-55.64
-62.71
-67.86
-69.72
-67.36
-60.78
-50.86
-39.08
-27.04
-15.94
-6.37
1.62
8.26
13.76
18.21
21.54
23.74
24.88
25.24
25.12
24.84
24.58
24.39
24.24
24.11
24.06
24.11
24.28
24.49
24.59
24.39
23.80
22.78
21.39
19.66
17.55
14.99
11.93
8.35
4.35
0.07
-4.29
-8.57
-12.62
-16.41
-20.05
-23.87
-28.36
-34.03
-41.10
-49.19
-57.21
-63.52
-66.49
-64.98
-58.84
-48.89
-36.64
-23.76
-11.58
-0.89
8.05
15.32
21.11
25.50
28.52
30.11
30.31
29.33
27.63
25.78
24.35
23.65
23.73
24.32
25.10
25.81
26.36
26.82
27.23
27.48
27.24
26.08
23.72
20.07
15.44
10.35
5.37
0.87
-3.03
-6.56
-10.11
-14.08
-18.79
-24.42
-31.00
-38.35
-45.91
-52.67
-57.30
-58.48
-55.40
-48.12
-37.62
-25.50
-13.39
-2.45
6.80
14.39
20.48
25.07
27.89
28.64
27.30
24.30
20.53
17.00
14.53
13.42
13.45
14.08
14.81
15.36
15.73
16.08
16.48
16.79
16.67
15.66
13.45
9.92
5.24
-0.21
-5.97
-11.58
-16.72
-21.37
-25.80
-30.62
-36.51
-43.93
-52.77
-62.20
-70.70
-76.44
-77.87
-74.22
-65.72
-53.55
-39.34
-24.78
-11.11
0.96
11.16
19.52
26.10
31.02
34.33
36.18
36.80
36.53
35.73
34.78
33.90
33.18
32.50
31.71
30.71
29.56
28.48
27.71
27.31
27.07
26.52
25.08
22.35
18.27
13.14
7.53
2.03
-2.95
-7.28
-11.20
-15.18
-19.81
-25.62
-32.98
-41.77
-51.29
-60.30
-67.17
-70.34
-68.82
-62.54
-52.39
-39.91
-26.78
-14.30
-3.17
6.50
14.88
22.11
28.13
32.71
35.58
36.68
36.27
34.92
33.29
31.96
31.21
30.99
31.07
31.16
31.09
30.81
30.36
29.77
28.96
27.77
25.98
23.49
20.26
16.39
12.09
7.61
3.22
-0.88
-4.56
-7.85
-10.91
-14.01
-17.56
-21.99
-27.70
-34.80
-42.87
-50.78
-56.85
-59.36
-57.18
-50.32
-39.94
-27.94
-16.17
-5.77
3.03
10.58
17.19
22.68
26.47
27.99
27.27
25.13
22.88
21.73
22.24
24.14
26.62
28.81
30.21
30.75
30.69
30.25
29.52
28.48
27.15
25.68
24.30
23.16
22.14
20.92
19.13
16.54
13.18
9.24
4.98
0.47
-4.38
-9.82
-16.09
-23.32
-31.43
-40.03
-48.38
-55.35
-59.66
-60.14
-56.23
-48.23
-37.23
-24.80
-12.48
-1.40
7.90
15.31
20.91
24.88
27.36
28.57
28.84
28.55
28.00
27.37
26.72
25.99
25.17
24.30
23.55
23.10
23.09
23.52
24.13
24.52
24.18
22.75
20.16
16.67
12.75
8.91
5.43
2.24
-1.04
-4.99
-10.14
-16.76
-24.77
-33.63
-42.43
-49.88
-54.63
-55.54
-52.05
-44.45
-33.84
-21.85
-10.06
0.40
9.12
16.20
21.94
26.40
29.35
30.46
29.61
27.22
24.15
21.43
19.77
19.33
19.68
20.14
20.14
19.53
18.54
17.60
16.94
16.43
15.52
13.52
9.95
4.83
-1.37
-7.85
-13.84
-18.98
-23.35
-27.39
-31.75
-36.94
-43.23
-50.50
-58.18
-65.26
-70.45
-72.43
-70.30
-63.86
-53.76
-41.32
-28.12
-15.49
-4.24
5.38
13.49
20.25
25.71
29.77
32.32
33.44
33.41
32.72
31.84
31.11
30.62
30.27
29.89
29.38
28.76
28.16
27.67
27.26
26.69
25.57
23.50
20.25
15.85
10.66
5.19
-0.08
-4.85
-9.14
-13.22
-17.57
-22.71
-29.04
-36.68
-45.31
-54.11
-61.75
-66.73
-67.74
-64.11
-56.12
-44.89
-32.05
-19.21
-7.54
2.46
10.81
17.80
23.67
28.49
32.15
34.58
35.80
36.01
35.60
34.94
34.40
34.19
34.44
35.24
36.67
38.74
41.38
44.26
46.74
47.96
47.06
43.52
37.38
29.31
20.41
11.83
4.45
-1.42
-6.00
-9.88
-13.86
-18.70
-24.95
-32.78
-41.83
-51.05
-58.91
-63.67
-64.00
-59.44
-50.57
-38.83
-26.01
-13.68
-2.83
6.18
13.38
18.99
23.09
25.76
27.13
27.45
27.15
26.71
26.47
26.59
26.99
27.48
27.90
28.24
28.60
29.13
29.90
30.76
31.31
31.06
29.55
26.59
22.32
17.21
11.92
7.05
2.92
-0.54
-3.82
-7.61
-12.58
-19.09
-27.01
-35.53
-43.35
-49.00
-51.19
-49.24
-43.25
-34.05
-22.96
-11.40
-0.53
8.85
16.34
21.81
25.29
26.87
26.73
25.17
22.60
19.55
16.52
13.93
11.97
10.64
9.78
9.23
8.92
8.89
9.19
9.71
10.12
9.86
8.42
5.50
1.28
-3.72
-8.77
-13.33
-17.25
-20.84
-24.75
-29.70
-36.14
-44.04
-52.75
-61.09
-67.56
-70.75
-69.70
-64.23
-54.96
-43.19
-30.46
-18.10
-7.02
2.44
10.31
16.75
21.88
25.66
28.02
28.99
28.79
27.82
26.62
25.58
24.92
24.58
24.33
23.94
23.33
22.57
21.86
21.30
20.79
20.00
18.51
15.94
12.22
7.59
2.52
-2.53
-7.21
-11.46
-15.46
-19.60
-24.35
-30.13
-37.19
-45.35
-53.89
-61.57
-66.84
-68.34
-65.31
-57.95
-47.29
-34.86
-22.17
-10.32
0.22
9.38
17.29
24.01
29.45
33.45
35.85
36.77
36.54
35.70
34.79
34.18
33.94
33.85
33.63
33.04
32.09
30.99
30.02
29.35
28.88
28.31
27.21
25.18
22.02
17.78
12.70
7.13
1.43
-4.15
-9.48
-14.59
-19.64
-24.89
-30.59
-36.95
-44.00
-51.40
-58.36
-63.74
-66.30
-65.05
-59.69
-50.72
-39.33
-26.99
-15.01
-4.18
5.26
13.46
20.64
26.84
31.88
35.48
37.50
38.09
37.70
36.94
36.29
36.02
36.08
36.24
36.24
36.00
35.57
35.13
34.84
34.71
34.59
34.23
33.28
31.48
28.64
24.80
20.12
14.98
9.76
4.78
0.13
-4.29
-8.74
-13.57
-19.04
-25.35
-32.53
-40.40
-48.38
-55.49
-60.41
-61.84
-58.96
-51.86
-41.49
-29.42
-17.26
-6.14
3.43
11.41
17.88
22.75
25.81
26.92
26.26
24.41
22.17
20.25
19.01
18.40
18.13
17.91
17.71
17.66
17.95
18.64
19.54
20.20
20.09
18.78
16.14
12.39
8.03
3.67
-0.22
-3.47
-6.30
-9.31
-13.19
-18.52
-25.49
-33.75
-42.28
-49.68
-54.42
-55.29
-51.81
-44.38
-34.16
-22.71
-11.49
-1.48
6.96
13.84
19.29
23.31
25.74
26.45
25.52
23.43
20.93
18.79
17.53
17.26
17.67
18.17
18.23
17.57
16.28
14.68
13.22
12.18
11.57
11.06
10.11
8.17
4.90
0.31
-5.25
-11.14
-16.75
-21.67
-25.92
-29.93
-34.32
-39.68
-46.22
-53.56
-60.73
-66.35
-69.06
-67.89
-62.67
-54.06
-43.43
-32.40
-22.37
-14.24
-8.34
-4.63
-2.88
-2.78
-3.94
-5.76
-7.47
-8.30
-7.70
-5.58
-2.29
1.43
4.75
6.98
7.80
7.38
6.35
5.52
5.54
6.55
8.11
9.40
9.69
8.78
7.09
5.34
4.05
3.16
1.92
-0.73
-5.74
-13.47
-23.63
-35.32
-47.14
-57.40
-64.20
-65.80
-60.98
-49.62
-32.98
-13.49
5.95
22.80
35.51
43.66
47.71
48.47
46.89
43.89
40.35
37.00
34.22
31.80
29.05
25.24
20.01
13.77
7.56
2.62
-0.14
-0.47
1.19
4.02
7.13
9.77
11.45
12.00
11.53
10.34
8.82
7.25
5.68
3.87
1.40
-2.24
-7.45
-14.33
-22.51
-31.02
-38.41
-43.06
-43.72
-39.94
-32.27
-22.08
-11.08
-0.75
8.00
14.95
20.31
24.48
27.73
30.14
31.63
32.09
31.53
30.09
28.13
26.16
24.69
24.06
24.36
25.36
26.60
27.51
27.64
26.74
24.84
22.15
18.96
15.51
11.90
8.11
4.03
-0.46
-5.47
-11.10
-17.43
-24.38
-31.58
-38.20
-43.05
-44.84
-42.68
-36.44
-26.92
-15.58
-4.07
6.29
14.81
21.43
26.41
30.02
32.27
32.93
31.76
28.72
24.22
19.07
14.28
10.69
8.73
8.21
8.54
8.87
8.53
7.08
4.44
0.79
-3.58
-8.35
-13.25
-18.15
-23.13
-28.53
-34.86
-42.71
-52.38
-63.69
-75.80
-87.32
-96.62
-102.28
-103.41
-99.85
-92.09
-81.11
-68.08
-54.15
-40.25
-26.91
-14.37
-2.65
8.28
18.29
27.08
34.25
39.63
43.39
46.15
48.69
51.61
55.08
58.86
62.50
65.72
68.47
70.78
72.57
73.38
72.54
69.46
64.01
56.55
47.89
38.77
29.56
20.11
9.87
-1.69
-14.65
-28.22
-40.80
-50.32
-54.94
-53.70
-46.89
-35.92
-22.67
-8.81
4.66
17.32
29.06
39.56
48.29
54.58
58.03
58.83
57.60
55.14
52.02
48.50
44.56
40.24
35.73
31.48
27.92
25.26
23.31
21.64
19.74
17.27
14.13
10.44
6.34
1.97
-2.62
-7.31
-12.02
-16.68
-21.37
-26.39
-32.17
-39.11
-47.22
-55.98
-64.25
-70.47
-73.10
-71.16
-64.53
-54.06
-41.25
-27.74
-14.82
-3.18
6.98
15.75
23.20
29.33
34.14
37.75
40.46
42.68
44.76
46.80
48.68
50.13
50.84
50.62
49.48
47.59
45.24
42.67
40.02
37.19
33.90
29.77
24.43
17.78
10.11
2.05
-5.57
-12.06
-17.14
-21.05
-24.45
-28.16
-32.90
-39.01
-46.30
-54.08
-61.14
-66.12
-67.75
-65.31
-58.82
-49.13
-37.56
-25.52
-14.11
-3.90
4.91
12.25
18.02
22.06
24.30
24.92
24.41
23.43
22.59
22.22
22.33
22.69
23.03
23.25
23.43
23.73
24.22
24.73
24.89
24.28
22.61
19.88
16.39
12.56
8.77
5.13
1.55
-2.29
-6.74
-12.11
-18.59
-26.11
-34.23
-42.05
-48.38
-51.94
-51.88
-47.99
-40.87
-31.67
-21.67
-11.90
-2.96
4.88
11.49
16.67
20.20
21.93
21.92
20.57
18.50
16.38
14.70
13.65
13.08
12.66
12.01
10.96
9.64
8.37
7.51
7.16
7.10
6.83
5.84
3.88
1.03
-2.33
-5.76
-8.96
-11.95
-14.94
-18.24
-22.06
-26.51
-31.57
-37.15
-43.09
-48.99
-54.17
-57.66
-58.50
-56.08
-50.40
-42.12
-32.27
-21.91
-11.73
-2.10
6.86
15.03
22.17
27.93
32.02
34.34
35.07
34.56
33.24
31.46
29.52
27.61
25.92
24.58
23.75
23.46
23.67
24.18
24.74
25.10
25.08
24.61
23.70
22.39
20.68
18.56
16.06
13.24
10.25
7.25
4.27
1.19
-2.31
-6.69
-12.35
-19.49
-27.92
-36.97
-45.52
-52.29
-56.14
-56.36
-52.90
-46.38
-37.83
-28.42
-19.13
-10.58
-2.98
3.66
9.44
14.40
18.47
21.52
23.48
24.42
24.55
24.20
23.69
23.24
22.92
22.71
22.57
22.48
22.48
22.55
22.63
22.53
22.04
20.97
19.23
16.81
13.82
10.41
6.77
3.15
-0.22
-3.25
-6.01
-8.76
-11.94
-15.98
-21.15
-27.39
-34.22
-40.76
-45.91
-48.65
-48.30
-44.72
-38.40
-30.23
-21.23
-12.31
-4.11
2.99
8.81
13.26
16.33
18.09
18.71
18.48
17.74
16.80
15.90
15.18
14.66
14.30
14.09
14.03
14.21
14.72
15.57
16.59
17.42
17.60
16.76
14.78
11.88
8.47
5.02
1.81
-1.19
-4.27
-7.89
-12.50
-18.34
-25.23
-32.56
-39.28
-44.12
-45.94
-44.11
-38.74
-30.68
-21.29
-11.94
-3.70
2.93
7.93
11.47
13.77
14.91
14.92
13.91
12.17
10.14
8.31
7.00
6.27
5.93
5.67
5.28
4.71
4.12
3.66
3.33
2.86
1.85
-0.09
-3.05
-6.82
-10.93
-14.88
-18.37
-21.40
-24.29
-27.52
-31.59
-36.82
-43.18
-50.12
-56.61
-61.26
-62.77
-60.33
-53.99
-44.60
-33.60
-22.44
-12.18
-3.31
4.17
10.48
15.78
20.10
23.29
25.20
25.80
25.26
23.94
22.28
20.73
19.57
18.92
18.70
18.74
18.84
18.87
18.71
18.24
17.28
15.60
13.05
9.64
5.58
1.23
-3.02
-6.94
-10.53
-14.09
-18.06
-22.91
-28.86
-35.82
-43.19
-49.99
-55.04
-57.23
-55.93
-51.13
-43.44
-33.87
-23.54
-13.34
-3.87
4.60
11.92
18.02
22.82
26.27
28.45
29.56
29.92
29.83
29.56
29.22
28.81
28.19
27.28
26.11
24.85
23.78
23.13
22.91
22.86
22.44
21.08
18.35
14.26
9.21
3.86
-1.14
-5.46
-9.20
-12.86
-17.11
-22.46
-29.04
-36.44
-43.74
-49.72
-53.16
-53.17
-49.47
-42.42
-32.95
-22.24
-11.40
-1.25
7.73
15.35
21.55
26.26
29.45
31.15
31.54
31.00
30.01
29.06
28.49
28.40
28.70
29.14
29.53
29.76
29.83
29.79
29.61
29.09
27.97
25.95
22.90
18.95
14.44
9.84
5.54
1.71
-1.76
-5.22
-9.09
-13.78
-19.50
-26.18
-33.41
-40.38
-45.96
-48.97
-48.49
-44.20
-36.52
-26.50
-15.50
-4.76
4.87
12.98
19.47
24.33
27.54
29.08
29.02
27.63
25.35
22.74
20.29
18.34
17.02
16.29
15.97
15.84
15.70
15.37
14.71
13.59
11.89
9.49
6.27
2.18
-2.79
-8.57
-15.00
-21.91
-29.13
-36.51
-43.94
-51.32
-58.33
-64.36
-68.44
-69.43
-66.35
-58.81
-47.25
-32.91
-17.54
-2.85
9.91
20.11
27.65
32.79
35.79
36.89
36.39
34.71
32.43
30.16
28.37
27.22
26.56
25.99
25.11
23.72
21.89
19.91
18.15
16.80
15.74
14.56
12.70
9.73
5.54
0.39
-5.22
-10.68
-15.64
-19.96
-23.83
-27.60
-31.68
-36.47
-42.17
-48.68
-55.42
-61.33
-65.08
-65.46
-61.83
-54.38
-44.03
-32.15
-20.07
-8.69
1.57
10.74
18.96
26.28
32.52
37.39
40.61
42.08
42.01
40.88
39.28
37.79
36.84
36.61
37.04
37.92
38.94
39.83
40.37
40.49
40.15
39.35
38.08
36.19
33.50
29.80
25.03
19.41
13.36
7.48
2.18
-2.40
-6.52
-10.67
-15.42
-21.18
-28.01
-35.59
-43.15
-49.67
-54.00
-55.14
-52.55
-46.27
-37.04
-25.98
-14.41
-3.38
6.41
14.67
21.35
26.53
30.26
32.63
33.76
33.90
33.39
32.62
31.91
31.47
31.30
31.31
31.35
31.27
31.06
30.75
30.39
30.01
29.54
28.78
27.48
25.35
22.23
18.14
13.36
8.31
3.43
-1.03
-5.10
-9.03
-13.20
-17.93
-23.41
-29.66
-36.59
-43.88
-50.89
-56.65
-59.99
-59.87
-55.80
-48.08
-37.72
-26.13
-14.63
-4.15
4.91
12.42
18.35
22.59
24.99
25.50
24.37
22.17
19.66
17.58
16.39
16.20
16.80
17.86
19.06
20.29
21.55
22.87
24.12
24.98
24.98
23.67
20.90
16.83
11.99
6.99
2.34
-1.78
-5.54
-9.41
-13.93
-19.55
-26.43
-34.26
-42.26
-49.25
-53.93
-55.19
-52.51
-46.12
-36.91
-26.16
-15.16
-4.88
4.12
11.69
17.82
22.57
25.93
27.90
28.54
28.06
26.80
25.25
23.86
23.00
22.77
23.05
23.56
23.98
24.08
23.79
23.18
22.34
21.31
20.03
18.34
16.02
12.91
8.99
4.42
-0.48
-5.33
-9.78
-13.69
-17.12
-20.38
-23.91
-28.16
-33.43
-39.73
-46.70
-53.52
-59.11
-62.32
-62.22
-58.42
-51.18
-41.37
-30.18
-18.83
-8.26
1.01
8.82
15.26
20.43
24.39
27.11
28.61
29.04
28.72
28.07
27.46
27.08
26.95
27.01
27.23
27.63
28.28
29.13
29.94
30.30
29.85
28.44
26.22
23.60
20.97
18.51
16.08
13.39
10.14
6.21
1.77
-2.88
-7.43
-11.76
-15.86
-19.90
-24.08
-28.64
-33.79
-39.66
-46.12
-52.60
-58.12
-61.46
-61.55
-57.92
-50.82
-41.24
-30.42
-19.55
-9.39
-0.32
7.52
14.08
19.25
22.96
25.23
26.27
26.44
26.15
25.80
25.65
25.82
26.30
27.02
27.88
28.79
29.69
30.53
31.20
31.57
31.43
30.64
29.13
27.01
24.50
21.84
19.20
16.60
13.91
10.89
7.40
3.45
-0.80
-5.02
-8.95
-12.45
-15.65
-18.90
-22.69
-27.47
-33.45
-40.32
-47.30
-53.09
-56.33
-55.91
-51.43
-43.30
-32.73
-21.24
-10.23
-0.64
7.24
13.51
18.42
22.06
24.36
25.20
24.65
23.06
21.04
19.26
18.23
18.11
18.74
19.75
20.75
21.46
21.78
21.80
21.70
21.62
21.53
21.27
20.51
18.96
16.47
13.18
9.39
5.49
1.80
-1.59
-4.74
-7.76
-10.80
-13.94
-17.40
-21.45
-26.37
-32.18
-38.51
-44.41
-48.61
-49.84
-47.33
-41.17
-32.24
-21.95
-11.71
-2.51
5.20
11.43
16.29
19.75
21.66
21.87
20.50
18.00
15.10
12.57
10.91
10.23
10.32
10.78
11.24
11.51
11.49
11.24
10.80
10.20
9.48
8.60
7.48
5.96
3.84
0.93
-2.76
-7.06
-11.61
-15.97
-19.86
-23.22
-26.19
-29.09
-32.28
-36.13
-40.91
-46.73
-53.31
-59.87
-65.20
-67.91
-66.86
-61.65
-52.75
-41.40
-29.10
-17.22
-6.63
2.33
9.66
15.49
19.94
23.05
24.89
25.60
25.43
24.71
23.77
22.91
22.33
22.12
22.27
22.66
23.17
23.64
23.98
24.05
23.74
22.90
21.44
19.28
16.48
13.15
9.42
5.43
1.27
-3.05
-7.53
-12.09
-16.58
-20.77
-24.44
-27.58
-30.39
-33.39
-37.20
-42.32
-48.77
-55.87
-62.30
-66.38
-66.65
-62.44
-54.08
-42.81
-30.32
-18.17
-7.33
1.85
9.51
15.92
21.28
25.61
28.86
31.03
32.22
32.63
32.45
31.87
31.05
30.17
29.43
28.99
28.94
29.22
29.66
30.01
30.01
29.46
28.28
26.45
24.09
21.30
18.20
14.84
11.20
7.25
2.92
-1.73
-6.59
-11.46
-16.14
-20.51
-24.59
-28.58
-32.81
-37.67
-43.42
-50.04
-57.01
-63.34
-67.72
-68.85
-65.91
-58.81
-48.28
-35.63
-22.35
-9.73
1.40
10.73
18.29
24.25
28.79
32.02
34.07
35.08
35.31
35.06
34.66
34.33
34.24
34.41
34.83
35.42
36.12
36.86
37.58
38.18
38.54
38.51
37.93
36.72
34.83
32.30
29.18
25.55
21.49
17.05
12.35
7.50
2.68
-1.95
-6.28
-10.33
-14.31
-18.59
-23.58
-29.58
-36.51
-43.76
-50.23
-54.54
-55.44
-52.26
-45.13
-34.98
-23.24
-11.42
-0.62
8.56
15.99
21.77
25.97
28.49
29.17
28.01
25.30
21.76
18.31
15.81
14.71
14.98
16.12
17.47
18.54
19.14
19.42
19.64
19.98
20.33
20.34
19.59
17.77
14.81
10.89
6.35
1.53
-3.33
-8.08
-12.67
-17.10
-21.39
-25.65
-30.11
-35.08
-40.78
-47.11
-53.49
-58.80
-61.71
-61.02
-56.19
-47.54
-36.16
-23.51
-10.94
0.63
10.77
19.30
26.04
30.67
32.84
32.46
29.93
26.17
22.38
19.62
18.45
18.76
19.95
21.23
22.04
22.24
22.05
21.86
21.88
21.99
21.75
20.60
18.13
14.29
9.45
4.20
-0.90
-5.50
-9.60
-13.44
-17.35
-21.66
-26.60
-32.31
-38.73
-45.46
-51.75
-56.43
-58.27
-56.27
-50.14
-40.36
-28.15
-15.02
-2.30
9.08
18.75
26.62
32.71
36.96
39.26
39.54
38.02
35.20
31.77
28.46
25.83
24.13
23.35
23.28
23.64
24.18
24.67
24.92
24.70
23.78
21.96
19.16
15.41
10.95
6.08
1.18
-3.56
-8.06
-12.49
-17.17
-22.45
-28.61
-35.70
-43.38
-50.87
-56.96
-60.32
-59.82
-54.98
-46.13
-34.34
-21.12
-7.93
4.15
14.56
23.14
29.94
35.01
38.37
40.09
40.32
39.34
37.53
35.24
32.77
30.28
27.81
25.44
23.23
21.33
19.81
18.66
17.62
16.35
14.41
11.54
7.72
3.19
-1.68
-6.51
-11.05
-15.28
-19.34
-23.58
-28.40
-34.14
-40.85
-48.07
-54.73
-59.38
-60.50
-57.11
-49.09
-37.25
-23.07
-8.22
5.95
18.59
29.42
38.42
45.68
51.24
55.08
57.23
57.82
57.12
55.52
53.38
51.04
48.76
46.71
45.00
43.72
42.87
42.45
42.25
41.95
41.13
39.32
36.24
31.83
26.30
20.07
13.62
7.40
1.69
-3.35
-7.67
-11.30
-14.24
-16.55
-18.36
-19.92
-21.65
-24.11
-27.86
-33.24
-40.15
-47.82
-54.91
-59.72
-60.74
-57.05
-48.64
-36.38
-21.69
-6.13
8.99
22.78
34.80
44.92
53.11
59.42
63.84
66.27
66.66
65.07
61.79
57.36
52.42
47.58
43.22
39.45
36.22
33.39
30.89
28.67
26.63
24.55
22.15
19.18
15.60
11.60
7.47
3.53
-0.14
-3.68
-7.42
-11.66
-16.53
-21.92
-27.45
-32.70
-37.33
-41.23
-44.63
-47.97
-51.78
-56.51
-62.31
-68.96
-75.73
-81.50
-84.93
-84.82
-80.48
-71.97
-60.11
-46.20
-31.65
-17.61
-4.76
6.58
16.31
24.35
30.61
35.04
37.76
39.02
39.23
38.84
38.18
37.47
36.79
36.13
35.47
34.82
34.26
33.92
33.87
34.04
34.16
33.79
32.51
30.08
26.57
22.32
17.86
13.61
9.78
6.31
2.96
-0.50
-4.22
-8.17
-12.21
-16.15
-19.81
-23.07
-26.01
-28.87
-32.07
-36.13
-41.40
-47.88
-54.99
-61.63
-66.41
-68.00
-65.60
-59.09
-49.15
-36.96
-23.88
-11.16
0.33
10.13
18.12
24.38
29.10
32.44
34.59
35.75
36.14
36.02
35.60
35.03
34.41
33.79
33.19
32.68
32.32
32.13
32.10
32.07
31.83
31.12
29.73
27.63
24.94
21.91
18.80
15.73
12.66
9.41
5.72
1.46
-3.35
-8.43
-13.38
-17.79
-21.38
-24.14
-26.34
-28.41
-30.91
-34.33
-38.94
-44.69
-51.09
-57.15
-61.63
-63.26
-61.19
-55.28
-46.19
-35.16
-23.61
-12.71
-3.14
4.90
11.46
16.66
20.52
23.00
24.08
23.93
22.84
21.27
19.66
18.35
17.49
17.10
17.04
17.19
17.47
17.87
18.37
18.84
19.01
18.54
17.18
14.88
11.82
8.39
4.98
1.82
-1.09
-3.95
-7.02
-10.44
-14.12
-17.79
-21.09
-23.77
-25.77
-27.43
-29.28
-31.94
-35.81
-40.89
-46.65
-52.16
-56.33
-58.14
-56.95
-52.58
-45.31
-35.85
-25.13
-14.14
-3.79
5.29
12.72
18.43
22.49
25.10
26.40
26.57
25.71
23.99
21.66
19.04
16.53
14.53
13.30
12.92
13.24
13.93
14.62
14.99
14.92
14.39
13.46
12.17
10.48
8.28
5.48
2.11
-1.68
-5.62
-9.41
-12.81
-15.72
-18.22
-20.55
-23.06
-26.14
-30.06
-34.83
-40.10
-45.11
-48.81
-50.16
-48.50
-43.70
-36.28
-27.26
-17.75
-8.70
-0.71
5.98
11.32
15.37
18.18
19.80
20.35
19.99
18.97
17.59
16.14
14.84
13.80
13.04
12.51
12.11
11.78
11.49
11.22
10.84
10.16
8.88
6.75
3.69
-0.16
-4.43
-8.74
-12.78
-16.48
-19.97
-23.56
-27.63
-32.44
-37.98
-43.87
-49.30
-53.14
-54.33
-52.13
-46.50
-38.12
-28.16
-17.95
-8.54
-0.53
5.96
11.08
15.02
17.85
19.55
20.07
19.48
18.01
15.99
13.79
11.75
10.10
8.92
8.22
7.91
7.82
7.79
7.59
6.98
5.79
3.88
1.28
-1.86
-5.32
-8.88
-12.42
-16.00
-19.83
-24.24
-29.39
-35.17
-41.00
-45.93
-48.82
-48.73
-45.23
-38.54
-29.48
-19.22
-8.94
0.45
8.42
14.82
19.67
23.03
24.97
25.52
24.80
23.06
20.70
18.21
16.06
14.58
13.81
13.56
13.47
13.14
12.28
10.80
8.78
6.35
3.63
0.70
-2.52
-6.13
-10.26
-14.98
-20.31
-26.21
-32.54
-39.03
-45.20
-50.41
-53.84
-54.75
-52.58
-47.20
-38.93
-28.51
-17.02
-5.64
4.49
12.53
18.05
21.11
22.19
22.03
21.26
20.26
19.01
17.32
15.00
12.14
9.11
6.34
4.12
2.52
1.62
1.83
4.07
9.39
18.44
30.73
44.39
56.74
65.20
68.18
65.45
57.66
45.53
29.31
9.02
-14.55
-38.66
-58.53
-68.48
-64.32
-45.27
-14.58
21.78
57.58
88.63
113.59
133.13
148.08
158.13
161.81
157.66
145.75
128.40
109.54
93.23
82.13
76.90
76.48
78.91
82.21
84.82
85.74
84.53
81.31
76.68
71.57
66.76
62.53
58.38
53.23
45.98
36.09
23.84
10.25
-3.42
-16.11
-27.20
-36.24
-42.76
-46.11
-45.85
-42.09
-35.76
-28.46
-21.90
-17.39
-15.46
-16.04
-18.78
-23.27
-29.06
-35.44
-41.43
-46.05
-48.78
-49.86
-50.14
-50.56
-51.59
-52.85
-53.35
-52.00
-48.11
-41.55
-32.81
-22.77
-12.52
-3.34
3.49
6.79
5.81
0.59
-7.98
-18.31
-28.60
-37.47
-44.51
-50.24
-55.84
-62.38
-70.28
-78.97
-87.13
-93.06
-95.13
-92.02
-83.04
-68.46
-49.95
-30.72
-14.96
-6.64
-8.05
-18.72
-35.46
-53.41
-67.73
-75.01
-74.02
-65.52
-51.66
-35.28
-19.24
-6.09
2.46
5.88
5.09
2.18
-0.44
-1.05
0.48
2.68
3.08
-0.57
-9.29
-22.42
-37.73
-52.19
-62.77
-67.26
-64.62
-55.19
-40.57
-23.22
-5.86
9.18
20.49
27.78
31.66
33.31
33.93
34.52
35.64
37.34
39.30
40.89
41.44
40.49
37.85
33.68
28.29
22.12
15.62
9.17
2.99
-2.88
-8.59
-14.32
-20.14
-25.99
-31.80
-37.68
-43.90
-50.73
-58.07
-65.07
-70.25
-71.95
-69.05
-61.54
-50.46
-37.52
-24.42
-12.28
-1.54
7.82
15.88
22.52
27.38
30.07
30.43
28.72
25.59
21.92
18.56
16.12
14.87
14.84
15.92
17.97
20.79
24.06
27.22
29.49
30.12
28.59
24.87
19.40
12.86
5.90
-1.16
-8.40
-16.19
-24.96
-34.90
-45.79
-56.84
-66.77
-74.06
-77.35
-75.88
-69.80
-60.07
-48.19
-35.67
-23.62
-12.61
-2.81
5.83
13.39
19.84
25.11
29.13
31.97
33.75
34.72
35.18
35.47
35.92
36.79
38.26
40.41
43.19
46.42
49.85
53.11
55.76
57.36
57.57
56.26
53.54
49.77
45.40
40.81
36.15
31.33
26.10
20.31
13.97
7.35
0.79
-5.42
-11.19
-16.64
-22.08
-27.88
-34.34
-41.57
-49.24
-56.58
-62.32
-65.07
-63.70
-57.78
-47.77
-34.88
-20.70
-6.70
6.12
17.28
26.77
34.76
41.42
46.80
50.86
53.56
55.00
55.46
55.28
54.84
54.28
53.59
52.65
51.36
49.86
48.44
47.46
47.15
47.42
47.87
47.94
47.12
45.14
42.07
38.24
34.16
30.26
26.81
23.78
20.95
17.98
14.57
10.62
6.28
1.88
-2.20
-5.69
-8.54
-10.99
-13.46
-16.51
-20.61
-26.02
-32.59
-39.68
-46.05
-50.22
-50.81
-47.03
-39.02
-27.89
-15.31
-3.01
7.74
16.38
22.95
27.83
31.40
33.86
35.26
35.69
35.33
34.54
33.78
33.48
33.93
35.24
37.28
39.71
42.00
43.53
43.74
42.30
39.24
34.90
29.78
24.36
18.91
13.46
7.92
2.21
-3.61
-9.29
-14.51
-19.00
-22.62
-25.46
-27.81
-30.04
-32.45
-35.13
-37.93
-40.53
-42.69
-44.41
-46.01
-47.98
-50.81
-54.74
-59.59
-64.84
-69.65
-73.02
-73.99
-71.81
-66.17
-57.34
-46.16
-33.89
-21.76
-10.72
-1.19
6.86
13.65
19.34
23.91
27.16
28.98
29.47
29.03
28.27
27.76
27.79
28.33
29.11
29.81
30.21
30.23
29.92
29.31
28.31
26.79
24.61
21.69
18.05
13.74
8.84
3.48
-2.10
-7.54
-12.40
-16.35
-19.32
-21.58
-23.70
-26.31
-29.92
-34.77
-40.73
-47.34
-53.81
-59.13
-62.15
-61.87
-57.69
-49.71
-38.73
-26.08
-13.21
-1.30
8.97
17.45
24.26
29.62
33.63
36.33
37.70
37.86
37.00
35.45
33.54
31.54
29.73
28.33
27.52
27.37
27.78
28.45
28.94
28.88
28.01
26.38
24.15
21.60
18.83
15.79
12.31
8.23
3.56
-1.51
-6.66
-11.57
-16.01
-19.93
-23.39
-26.56
-29.70
-33.20
-37.47
-42.79
-49.05
-55.59
-61.24
-64.54
-64.23
-59.74
-51.35
-40.10
-27.53
-15.10
-3.91
5.47
12.97
18.76
23.10
26.16
28.05
28.90
28.86
28.18
27.15
26.04
25.07
24.34
23.95
23.94
24.34
25.11
26.14
27.18
27.93
28.08
27.42
25.90
23.60
20.70
17.46
14.04
10.51
6.85
2.97
-1.16
-5.53
-9.99
-14.39
-18.58
-22.57
-26.49
-30.63
-35.37
-41.02
-47.65
-54.85
-61.69
-66.81
-68.75
-66.41
-59.50
-48.65
-35.26
-21.06
-7.56
4.23
13.91
21.51
27.24
31.32
33.87
34.96
34.70
33.28
31.04
28.45
26.05
24.32
23.58
23.84
24.82
26.06
27.07
27.52
27.29
26.42
25.06
23.32
21.22
18.76
15.95
12.84
9.55
6.17
2.75
-0.73
-4.34
-8.11
-11.94
-15.66
-19.10
-22.25
-25.37
-28.98
-33.63
-39.61
-46.65
-53.78
-59.49
-62.10
-60.30
-53.58
-42.43
-28.17
-12.58
2.57
15.88
26.47
33.99
38.47
40.20
39.66
37.48
34.31
30.75
27.29
24.24
21.77
20.00
19.01
18.87
19.55
20.88
22.53
24.09
25.17
25.52
25.01
23.65
21.57
18.88
15.71
12.12
8.16
3.86
-0.67
-5.29
-9.79
-13.97
-17.71
-21.07
-24.23
-27.53
-31.32
-35.90
-41.35
-47.37
-53.27
-57.93
-60.05
-58.49
-52.73
-43.07
-30.63
-17.04
-3.93
7.51
16.62
23.31
27.77
30.32
31.22
30.74
29.17
26.89
24.35
21.95
20.05
18.82
18.33
18.49
19.16
20.12
21.16
22.05
22.56
22.52
21.82
20.44
18.45
15.95
13.04
9.76
6.12
2.17
-2.01
-6.21
-10.24
-13.95
-17.36
-20.64
-24.13
-28.20
-33.13
-39.00
-45.55
-52.04
-57.37
-60.23
-59.44
-54.42
-45.39
-33.42
-20.13
-7.18
4.15
13.22
19.98
24.70
27.69
29.16
29.27
28.15
26.09
23.51
20.91
18.78
17.45
17.05
17.47
18.37
19.33
19.95
20.02
19.59
18.85
17.99
17.07
15.91
14.24
11.81
8.56
4.65
0.38
-3.89
-7.97
-11.77
-15.36
-18.86
-22.41
-26.21
-30.52
-35.58
-41.48
-47.96
-54.22
-59.07
-61.16
-59.37
-53.29
-43.29
-30.49
-16.46
-2.74
9.43
19.36
26.82
31.93
34.98
36.28
36.10
34.73
32.52
29.90
27.40
25.52
24.60
24.69
25.58
26.89
28.22
29.30
29.97
30.14
29.69
28.45
26.19
22.78
18.27
12.92
7.18
1.49
-3.75
-8.37
-12.33
-15.77
-18.88
-21.95
-25.28
-29.26
-34.16
-39.99
-46.27
-51.98
-55.69
-56.07
-52.30
-44.51
-33.69
-21.36
-8.94
2.60
12.94
22.19
30.52
37.96
44.31
49.30
52.81
54.89
55.79
55.98
56.08
56.89
59.32
64.25
72.18
83.07
96.18
110.20
123.52
134.56
142.18
145.84
145.84
143.20
139.42
136.12
134.49
134.99
137.17
139.73
140.91
138.96
132.52
120.95
104.44
83.91
60.97
37.60
15.97
-2.06
-15.23
-23.24
-26.76
-27.21
-26.28
-25.50
-25.80
-27.57
-30.80
-35.33
-41.03
-47.71
-55.07
-62.62
-69.80
-76.07
-81.03
-84.49
-86.47
-87.15
-86.79
-85.73
-84.25
-82.46
-80.30
-77.63
-74.53
-71.55
-69.55
-69.49
-71.90
-76.66
-83.11
-90.37
-97.89
-105.74
-114.26
-123.41
-132.17
-138.66
-140.76
-137.13
-127.50
-112.96
-95.54
-77.52
-60.48
-45.02
-31.08
-18.31
-7.06
1.92
7.47
8.37
4.03
-4.81
-15.98
-26.62
-33.78
-35.87
-32.15
-22.82
-8.56
9.82
31.55
55.61
80.17
103.13
117.93
118.67
104.11
79.32
52.21
29.29
14.16
8.12
12.35
26.75
50.98
83.13
119.26
154.24
183.71
206.25
215.71
211.80
198.76
182.71
167.51
153.26
137.83
119.69
99.57
80.59
64.03
50.02
37.47
24.52
9.45
-8.81
-30.96
-58.03
-88.08
-119.72
-151.54
-182.01
-209.41
-232.09
-248.87
-259.51
-264.77
-266.02
-264.67
-261.47
-256.60
-250.04
-241.64
-231.32
-219.14
-205.28
-190.05
-173.91
-157.09
-139.66
-121.58
-102.81
-83.48
-64.04
-45.09
-27.07
-10.33
5.13
19.27
31.92
42.95
52.68
62.14
72.72
85.48
100.22
115.46
128.96
138.67
143.47
143.41
139.19
131.61
121.28
108.64
94.39
79.63
65.74
53.93
44.89
38.55
34.34
31.40
28.84
25.91
21.97
16.60
9.69
1.56
-6.97
-14.78
-20.64
-23.40
-22.22
-16.72
-7.15
5.57
19.93
34.09
46.32
55.43
61.13
64.01
65.23
65.99
66.97
68.25
69.40
69.93
69.53
68.26
66.42
64.35
62.29
60.31
58.27
55.97
53.19
49.76
45.61
40.74
35.17
29.03
22.46
15.68
8.93
2.38
-3.93
-10.05
-16.15
-22.29
-28.43
-34.35
-39.80
-44.57
-48.54
-51.70
-54.15
-56.02
-57.63
-59.54
-62.52
-67.38
-74.60
-84.02
-94.65
-104.78
-112.40
-115.83
-114.08
-107.23
-96.22
-82.48
-67.48
-52.27
-37.41
-23.05
-9.20
3.98
16.10
26.62
35.04
41.12
44.95
46.95
47.68
47.72
47.50
47.27
47.15
47.20
47.47
48.05
48.96
50.11
51.19
51.77
51.36
49.65
46.59
42.43
37.61
32.61
27.81
23.40
19.36
15.53
11.67
7.59
3.10
-1.82
-7.08
-12.42
-17.55
-22.23
-26.42
-30.38
-34.68
-40.00
-46.90
-55.51
-65.29
-74.96
-82.79
-87.04
-86.52
-80.90
-70.84
-57.65
-42.92
-27.96
-13.67
-0.45
11.56
22.32
31.74
39.65
45.93
50.52
53.47
54.93
55.14
54.35
52.85
51.00
49.19
47.77
47.01
46.97
47.47
48.07
48.26
47.49
45.44
42.01
37.45
32.21
26.85
21.82
17.32
13.19
9.06
4.53
-0.53
-5.98
-11.42
-16.44
-20.83
-24.77
-28.71
-33.25
-38.92
-45.97
-54.21
-62.98
-71.12
-77.17
-79.72
-77.79
-71.19
-60.59
-47.26
-32.67
-18.08
-4.34
8.14
19.17
28.67
36.50
42.52
46.68
49.03
49.85
49.53
48.54
47.33
46.23
45.41
44.86
44.46
44.09
43.73
43.44
43.25
43.08
42.67
41.61
39.56
36.41
32.32
27.70
22.96
18.38
13.97
9.53
4.70
-0.72
-6.75
-13.17
-19.58
-25.58
-30.87
-35.43
-39.43
-43.27
-47.46
-52.49
-58.73
-66.23
-74.60
-82.87
-89.58
-93.12
-92.23
-86.40
-76.08
-62.57
-47.53
-32.49
-18.49
-5.98
5.07
14.83
23.36
30.56
36.20
40.14
42.47
43.51
43.77
43.75
43.78
43.95
44.13
44.14
43.88
43.42
42.94
42.64
42.58
42.62
42.45
41.63
39.80
36.74
32.55
27.61
22.47
17.66
13.49
9.97
6.82
3.61
-0.04
-4.29
-9.09
-14.13
-19.08
-23.63
-27.67
-31.32
-34.87
-38.78
-43.53
-49.48
-56.73
-64.96
-73.24
-80.16
-84.09
-83.68
-78.30
-68.39
-55.24
-40.63
-26.19
-13.01
-1.54
8.26
16.61
23.67
29.43
33.84
36.83
38.50
39.08
38.87
38.27
37.68
37.37
37.49
37.98
38.68
39.37
39.90
40.18
40.19
39.89
39.19
37.97
36.03
33.32
29.89
25.99
21.94
18.07
14.54
11.29
8.05
4.49
0.35
-4.43
-9.65
-14.95
-19.94
-24.38
-28.22
-31.62
-34.98
-38.73
-43.37
-49.25
-56.48
-64.70
-72.96
-79.82
-83.69
-83.27
-78.01
-68.37
-55.61
-41.45
-27.50
-14.88
-4.04
5.09
12.76
19.24
24.57
28.64
31.34
32.67
32.87
32.36
31.62
31.06
30.90
31.15
31.70
32.46
33.38
34.49
35.79
37.15
38.29
38.84
38.44
36.93
34.35
31.00
27.24
23.47
19.93
16.66
13.52
10.26
6.61
2.44
-2.22
-7.15
-11.98
-16.41
-20.24
-23.53
-26.49
-29.55
-33.20
-37.95
-44.17
-51.99
-61.06
-70.42
-78.58
-83.78
-84.52
-80.07
-70.80
-58.05
-43.71
-29.56
-16.79
-5.86
3.33
11.11
17.66
22.95
26.82
29.18
30.15
30.16
29.76
29.44
29.50
30.00
30.81
31.71
32.59
33.41
34.23
35.07
35.88
36.46
36.54
35.91
34.44
32.17
29.22
25.81
22.14
18.41
14.78
11.38
8.19
5.11
1.91
-1.61
-5.61
-10.04
-14.76
-19.50
-24.05
-28.33
-32.47
-36.83
-41.87
-48.05
-55.59
-64.28
-73.30
-81.31
-86.71
-88.05
-84.51
-76.18
-64.05
-49.67
-34.71
-20.47
-7.72
3.25
12.43
19.81
25.32
28.89
30.63
30.98
30.60
30.25
30.46
31.43
32.98
34.75
36.38
37.73
38.87
39.97
41.15
42.26
43.02
43.01
41.89
39.54
36.11
32.03
27.76
23.73
20.12
16.87
13.63
9.97
5.54
0.22
-5.74
-11.88
-17.63
-22.60
-26.73
-30.30
-33.84
-38.03
-43.41
-50.29
-58.55
-67.45
-75.72
-81.65
-83.58
-80.45
-72.19
-59.83
-45.15
-30.12
-16.19
-4.13
5.96
14.28
21.05
26.32
30.04
32.28
33.26
33.36
33.02
32.58
32.28
32.24
32.53
33.18
34.22
35.59
37.17
38.74
39.99
40.60
40.23
38.69
35.98
32.38
28.33
24.34
20.80
17.73
14.84
11.58
7.45
2.21
-3.94
-10.49
-16.80
-22.40
-27.21
-31.54
-36.04
-41.45
-48.31
-56.66
-65.86
-74.55
-80.95
-83.34
-80.59
-72.60
-60.30
-45.41
-29.84
-15.17
-2.37
8.25
16.75
23.34
28.19
31.33
32.82
32.85
31.78
30.16
28.57
27.52
27.30
27.98
29.36
31.10
32.77
34.05
34.70
34.70
34.06
32.85
31.03
28.53
25.27
21.34
16.94
12.38
7.93
3.70
-0.32
-4.29
-8.29
-12.37
-16.49
-20.69
-25.16
-30.30
-36.56
-44.24
-53.17
-62.48
-70.68
-75.94
-76.66
-72.03
-62.34
-48.94
-33.75
-18.67
-5.06
6.44
15.77
23.17
28.86
32.95
35.53
36.69
36.70
35.93
34.77
33.60
32.66
32.07
31.79
31.77
31.89
32.12
32.39
32.55
32.40
31.65
30.02
27.47
24.16
20.38
16.42
12.38
8.11
3.35
-2.10
-8.20
-14.64
-20.93
-26.65
-31.65
-36.11
-40.53
-45.60
-51.98
-60.00
-69.42
-79.24
-87.77
-92.97
-93.08
-87.21
-75.73
-60.21
-42.86
-25.79
-10.50
2.45
13.23
22.28
29.99
36.49
41.72
45.56
48.04
49.36
49.84
49.81
49.56
49.35
49.35
49.72
50.49
51.56
52.66
53.41
53.41
52.35
50.15
46.95
43.04
38.78
34.43
30.09
25.69
21.03
15.88
10.16
3.89
-2.66
-9.13
-15.11
-20.42
-25.16
-29.81
-35.11
-41.76
-50.10
-59.65
-69.11
-76.57
-80.01
-78.02
-70.27
-57.65
-42.04
-25.63
-10.27
2.97
13.84
22.68
29.94
35.85
40.32
43.15
44.28
43.96
42.80
41.51
40.68
40.58
41.12
42.02
42.95
43.68
44.08
44.10
43.69
42.82
41.43
39.50
37.03
33.99
30.35
26.07
21.09
15.46
9.27
2.73
-3.88
-10.30
-16.31
-21.83
-26.95
-31.98
-37.38
-43.69
-51.31
-60.18
-69.57
-77.97
-83.46
-84.23
-79.28
-68.82
-54.25
-37.71
-21.30
-6.56
5.90
16.08
24.32
30.83
35.61
38.51
39.48
38.76
36.94
34.78
33.03
32.14
32.17
32.85
33.77
34.56
35.01
35.10
34.85
34.21
33.05
31.19
28.48
24.86
20.34
15.02
9.08
2.73
-3.73
-10.06
-16.07
-21.70
-27.02
-32.22
-37.58
-43.49
-50.32
-58.35
-67.41
-76.72
-84.80
-89.83
-90.16
-84.93
-74.46
-60.11
-43.85
-27.59
-12.71
0.20
11.13
20.40
28.30
34.90
40.17
44.03
46.56
47.98
48.65
48.90
48.98
49.00
48.97
48.92
48.92
49.05
49.33
49.60
49.54
48.72
46.83
43.78
39.77
35.20
30.50
25.96
21.58
17.08
12.08
6.33
-0.14
-6.95
-13.58
-19.53
-24.64
-29.17
-33.72
-39.05
-45.82
-54.24
-63.93
-73.83
-82.27
-87.42
-87.70
-82.36
-71.71
-57.12
-40.58
-24.07
-9.01
3.92
14.72
23.72
31.22
37.35
42.09
45.45
47.53
48.59
48.96
48.93
48.69
48.35
48.04
47.88
47.96
48.29
48.73
49.00
48.76
47.70
45.72
42.85
39.27
35.17
30.69
25.87
20.69
15.16
9.33
3.34
-2.61
-8.33
-13.71
-18.71
-23.42
-28.06
-32.95
-38.56
-45.34
-53.53
-62.88
-72.39
-80.44
-85.10
-84.76
-78.76
-67.59
-52.80
-36.40
-20.25
-5.56
7.16
17.92
26.92
34.27
39.96
43.93
46.21
47.02
46.78
45.94
44.98
44.23
43.87
43.89
44.13
44.33
44.25
43.69
42.55
40.85
38.64
36.00
32.97
29.55
25.69
21.37
16.58
11.38
5.88
0.25
-5.35
-10.77
-15.89
-20.71
-25.35
-30.15
-35.57
-42.09
-49.82
-58.29
-66.31
-72.14
-74.10
-71.08
-63.00
-50.86
-36.36
-21.32
-7.19
5.19
15.57
23.96
30.38
34.83
37.26
37.78
36.69
34.53
31.96
29.63
28.01
27.32
27.51
28.25
29.11
29.65
29.58
28.83
27.52
25.81
23.82
21.48
18.55
14.77
9.96
4.19
-2.18
-8.67
-14.83
-20.43
-25.50
-30.33
-35.31
-40.82
-47.18
-54.61
-63.11
-72.34
-81.37
-88.70
-92.55
-91.30
-84.23
-71.86
-55.88
-38.63
-22.25
-8.09
3.57
13.12
21.23
28.29
34.26
38.82
41.65
42.75
42.47
41.41
40.20
39.29
38.89
38.96
39.32
39.74
40.03
40.03
39.61
38.63
36.96
34.47
31.06
26.74
21.61
15.92
9.94
4.01
-1.68
-7.05
-12.11
-16.99
-21.79
-26.60
-31.59
-37.07
-43.41
-50.85
-59.24
-67.74
-74.85
-78.80
-78.11
-72.20
-61.62
-47.89
-32.91
-18.35
-5.25
6.04
15.59
23.55
29.93
34.60
37.46
38.62
38.40
37.33
35.92
34.55
33.37
32.38
31.43
30.39
29.19
27.81
26.25
24.40
22.10
19.07
15.08
10.03
3.88
-3.33
-11.68
-21.36
-32.50
-45.03
-58.47
-71.99
-84.61
-95.63
-104.84
-112.62
-119.75
-127.13
-135.52
-145.28
-156.27
-167.71
-178.28
-186.26
-189.87
-187.76
-179.34
-164.86
-145.24
-121.72
-95.68
-68.56
-41.75
-16.23
7.74
30.79
53.99
77.94
101.93
123.77
140.53
149.82
150.89
144.88
134.26
121.85
110.11
100.85
95.39
94.56
98.44
106.00
114.94
122.25
125.04
121.42
110.93
94.50
73.97
51.44
28.52
5.78
-17.51
-43.02
-72.25
-105.25
-139.73
-171.23
-194.59
-205.78
-203.48
-189.35
-167.17
-141.29
-115.30
-91.58
-71.33
-55.13
-43.17
-35.22
-30.45
-27.34
-23.96
-18.37
-9.03
5.05
24.14
47.82
74.73
102.60
128.45
149.16
162.21
166.20
161.08
147.88
128.34
104.54
78.69
52.99
29.42
9.42
-6.52
-19.04
-29.64
-40.19
-52.11
-65.98
-81.25
-96.44
-109.47
-118.26
-121.11
-117.17
-106.67
-90.85
-71.70
-51.42
-31.94
-14.54
0.26
12.44
22.26
29.96
35.66
39.42
41.42
42.06
41.84
41.37
41.05
41.10
41.51
42.23
43.26
44.67
46.52
48.69
50.78
52.10
51.85
49.42
44.59
37.74
29.69
21.47
13.91
7.50
2.08
-2.90
-8.26
-14.69
-22.39
-30.88
-38.92
-44.80
-46.82
-43.82
-35.65
-23.22
-8.24
7.37
21.97
34.60
44.95
53.11
59.29
63.62
66.19
67.11
66.70
65.40
63.74
62.10
60.67
59.42
58.20
56.90
55.50
54.16
53.06
52.24
51.49
50.23
47.74
43.46
37.30
29.73
21.66
14.05
7.49
1.96
-3.07
-8.40
-14.66
-22.06
-30.29
-38.54
-45.64
-50.35
-51.49
-48.26
-40.49
-28.78
-14.43
0.83
15.30
27.67
37.27
44.06
48.44
50.97
52.12
52.18
51.26
49.48
47.00
44.12
41.23
38.65
36.61
35.14
34.14
33.43
32.76
31.90
30.59
28.60
25.76
22.08
17.66
12.74
7.51
2.15
-3.28
-8.78
-14.46
-20.51
-27.10
-34.22
-41.46
-47.90
-52.15
-52.78
-48.79
-40.03
-27.41
-12.65
2.17
15.18
25.18
31.69
34.90
35.30
33.43
29.70
24.44
18.05
11.12
4.45
-1.02
-4.43
-5.06
-2.18
5.06
17.66
36.28
60.61
88.75
117.17
141.56
158.13
164.85
161.90
151.30
135.70
117.27
97.09
75.32
51.91
27.20
2.15
-21.94
-43.86
-62.82
-78.40
-90.37
-98.42
-102.03
-100.73
-94.32
-83.20
-68.51
-51.98
-35.64
-21.36
-10.49
-3.64
-0.74
-1.20
-4.19
-8.83
-14.26
-19.64
-24.07
-26.58
-26.34
-22.87
-16.28
-7.43
2.20
10.82
16.84
19.27
18.05
13.94
8.21
2.15
-3.42
-8.35
-13.14
-18.67
-25.76
-34.73
-45.18
-55.88
-65.06
-70.82
-71.74
-67.26
-57.79
-44.57
-29.23
-13.43
1.41
14.24
24.38
31.57
35.99
38.23
39.11
39.42
39.66
39.93
40.12
40.09
39.96
40.06
40.83
42.51
45.00
47.79
50.17
51.40
50.91
48.41
43.93
37.74
30.28
22.16
13.97
6.18
-0.93
-7.44
-13.72
-20.34
-27.82
-36.39
-45.72
-54.84
-62.26
-66.43
-66.16
-61.17
-52.16
-40.68
-28.49
-17.07
-7.21
1.01
7.91
13.78
18.70
22.49
24.96
26.11
26.25
25.84
25.37
25.12
25.10
25.13
24.94
24.34
23.21
21.56
19.45
16.98
14.24
11.27
8.07
4.58
0.71
-3.58
-8.27
-13.17
-18.02
-22.49
-26.33
-29.46
-32.01
-34.32
-36.79
-39.86
-43.80
-48.63
-53.93
-58.86
-62.20
-62.73
-59.56
-52.53
-42.29
-30.12
-17.51
-5.74
4.41
12.69
19.18
24.13
27.75
30.18
31.52
31.93
31.61
30.78
29.67
28.46
27.30
26.31
25.61
25.28
25.31
25.61
25.90
25.85
25.14
23.60
21.24
18.24
14.82
11.19
7.41
3.45
-0.74
-5.19
-9.81
-14.41
-18.75
-22.64
-25.98
-28.87
-31.53
-34.33
-37.62
-41.59
-46.07
-50.51
-53.93
-55.23
-53.49
-48.27
-39.86
-29.21
-17.67
-6.59
3.02
10.63
16.22
20.04
22.48
23.85
24.40
24.29
23.67
22.67
21.48
20.27
19.24
18.54
18.24
18.29
18.57
18.92
19.20
19.27
19.03
18.36
17.14
15.29
12.81
9.81
6.45
2.96
-0.49
-3.76
-6.76
-9.43
-11.71
-13.62
-15.27
-16.87
-18.73
-21.18
-24.44
-28.43
-32.70
-36.38
-38.39
-37.77
-34.00
-27.24
-18.30
-8.45
1.03
9.19
15.58
20.24
23.45
25.56
26.77
27.17
26.78
25.71
24.16
22.49
21.04
20.12
19.96
20.70
22.54
25.65
30.24
36.38
43.95
52.55
61.64
70.72
79.40
87.52
95.00
101.78
107.79
113.00
117.48
121.45
125.24
129.21
133.61
138.57
144.08
150.08
156.46
163.15
170.06
177.22
184.79
193.06
202.31
212.47
222.96
232.62
240.07
244.03
243.79
239.26
230.81
218.98
204.29
187.18
168.14
147.76
126.69
105.49
84.47
63.70
43.13
22.72
2.61
-16.98
-35.77
-53.44
-69.73
-84.50
-97.81
-110.06
-121.90
-134.03
-146.81
-160.00
-172.78
-184.00
-192.65
-198.24
-200.93
-201.47
-200.83
-199.87
-199.09
-198.40
-197.13
-194.23
-188.61
-179.59
-167.24
-152.38
-136.40
-120.78
-106.73
-94.92
-85.57
-78.62
-73.85
-70.97
-69.61
-69.29
-69.52
-69.87
-70.00
-69.69
-68.76
-67.03
-64.43
-61.02
-57.15
-53.44
-50.61
-49.32
-50.13
-53.32
-58.91
-66.63
-75.79
-85.32
-93.93
-100.50
-104.37
-105.61
-104.96
-103.45
-101.94
-100.72
-99.35
-96.86
-92.18
-84.61
-74.15
-61.57
-48.22
-35.57
-24.79
-16.55
-10.90
-7.55
-6.05
-6.09
-7.45
-10.00
-13.52
-17.62
-21.79
-25.40
-27.98
-29.28
-29.41
-28.81
-28.02
-27.59
-27.76
-28.51
-29.61
-30.77
-31.80
-32.72
-33.76
-35.35
-38.00
-42.18
-48.09
-55.43
-63.31
-70.34
-74.99
-76.16
-73.60
-68.11
-61.20
-54.62
-49.66
-46.75
-45.49
-44.96
-44.22
-42.67
-40.27
-37.33
-34.30
-31.47
-28.94
-26.69
-24.75
-23.33
-22.77
-23.41
-25.36
-28.39
-31.97
-35.42
-38.29
-40.39
-41.98
-43.47
-45.25
-47.32
-49.21
-49.88
-47.85
-41.58
-29.71
-11.66
12.09
39.81
68.77
95.77
117.98
133.55
142.04
144.28
141.89
136.65
130.00
122.75
115.11
106.83
97.49
86.64
74.03
59.68
43.84
26.98
9.59
-7.86
-24.95
-41.28
-56.44
-69.91
-81.29
-90.38
-97.28
-102.33
-105.94
-108.41
-109.86
-110.28
-109.62
-107.88
-105.07
-101.13
-95.83
-88.90
-80.18
-69.72
-57.73
-44.41
-29.85
-14.06
2.80
20.09
36.51
50.35
59.97
64.45
63.80
59.02
51.59
42.96
34.15
25.75
17.92
10.65
3.77
-3.12
-10.73
-19.94
-31.51
-45.63
-61.71
-78.44
-94.23
-107.79
-118.58
-126.89
-133.58
-139.62
-145.57
-151.23
-155.62
-157.25
-154.56
-146.47
-132.77
-114.20
-92.22
-68.57
-44.71
-21.58
0.43
21.21
40.55
57.94
72.66
84.07
91.89
96.33
97.96
97.38
95.05
91.16
85.76
78.91
70.84
61.91
52.52
43.07
33.88
25.24
17.36
10.37
4.15
-1.59
-7.29
-13.43
-20.45
-28.69
-38.33
-49.18
-60.43
-70.53
-77.39
-79.01
-74.17
-62.93
-46.71
-27.72
-8.27
9.88
25.73
38.95
49.50
57.45
62.84
65.80
66.63
65.76
63.72
60.98
57.93
54.83
51.94
49.49
47.76
47.04
47.45
48.94
51.14
53.51
55.45
56.57
56.74
56.08
54.78
52.87
50.10
45.97
39.91
31.60
21.21
9.64
-1.54
-10.31
-14.76
-13.52
-6.32
5.92
21.30
37.50
52.40
64.61
73.63
79.65
83.19
84.69
84.30
81.98
77.66
71.55
64.24
56.62
49.55
43.58
38.76
34.64
30.54
25.86
20.34
14.10
7.52
1.03
-5.09
-10.83
-16.44
-22.32
-28.93
-36.65
-45.65
-55.62
-65.63
-74.06
-78.80
-77.76
-69.54
-53.97
-32.34
-7.06
19.00
43.29
64.06
80.55
92.72
100.96
105.79
107.74
107.34
105.10
101.41
96.51
90.57
83.79
76.55
69.50
63.42
58.93
56.20
54.82
53.92
52.45
49.58
44.98
38.99
32.52
26.77
22.97
21.95
23.86
28.14
33.64
39.13
43.86
48.05
52.95
60.41
72.15
88.90
109.91
132.86
154.50
171.42
181.04
182.30
175.75
163.18
146.94
129.18
111.33
94.03
77.21
60.41
43.01
24.41
4.32
-17.06
-38.83
-59.66
-78.23
-93.83
-106.64
-117.58
-127.60
-137.12
-145.75
-152.68
-157.33
-159.83
-161.06
-162.17
-164.08
-167.13
-171.06
-175.16
-178.38
-179.39
-176.61
-168.55
-154.29
-133.98
-109.10
-82.10
-55.80
-32.68
-14.28
-1.04
7.48
12.24
14.34
14.82
14.51
14.01
13.77
14.04
15.01
16.70
19.02
21.75
24.53
26.97
28.75
29.66
29.60
28.58
26.52
23.31
18.80
12.93
5.85
-2.05
-10.30
-18.62
-27.06
-35.93
-45.51
-55.53
-64.95
-71.98
-74.61
-71.35
-61.81
-46.91
-28.49
-8.83
10.11
26.94
40.94
51.79
59.42
63.92
65.52
64.70
62.14
58.60
54.72
50.88
47.19
43.58
40.04
36.69
33.85
31.89
31.08
31.43
32.54
33.74
34.20
33.23
30.45
25.89
20.00
13.39
6.62
-0.03
-6.63
-13.60
-21.44
-30.49
-40.62
-51.00
-60.14
-66.18
-67.42
-62.88
-52.68
-38.07
-21.18
-4.36
10.38
21.73
29.18
32.90
33.45
31.49
27.68
22.62
16.79
10.63
4.49
-1.29
-6.34
-10.25
-12.51
-12.51
-9.62
-3.34
6.62
20.09
36.49
54.76
73.56
91.45
107.13
119.74
128.95
134.95
138.28
139.56
139.17
137.24
133.70
128.78
123.34
119.08
118.23
122.90
134.20
151.51
172.52
193.86
212.30
225.82
234.10
238.17
239.50
239.13
237.25
233.41
227.19
218.63
208.44
197.76
187.71
179.11
172.27
166.87
161.88
155.57
145.77
130.50
108.58
80.21
47.08
11.92
-22.27
-53.04
-78.94
-99.69
-115.84
-128.44
-138.61
-147.25
-154.88
-161.70
-167.54
-172.02
-174.62
-174.74
-171.82
-165.67
-156.67
-146.01
-135.52
-127.21
-122.66
-122.40
-125.69
-130.87
-136.05
-139.98
-142.59
-145.03
-148.96
-155.73
-165.59
-177.49
-189.53
-199.85
-207.40
-212.31
-215.54
-218.29
-221.21
-224.16
-226.35
-226.64
-223.87
-217.04
-205.45
-189.09
-169.21
-148.73
-131.97
-123.36
-125.56
-137.80
-155.54
-171.88
-180.09
-176.23
-160.36
-136.00
-107.97
-79.93
-52.91
-25.41
4.83
38.70
74.22
106.60
129.98
139.94
135.69
120.36
99.94
80.69
66.81
59.42
57.08
57.51
58.96
60.92
63.44
66.25
68.04
66.82
60.80
49.29
33.13
14.35
-4.68
-22.00
-36.49
-47.81
-55.95
-60.94
-62.54
-60.42
-54.36
-44.68
-32.37
-19.03
-6.49
3.68
10.54
13.81
13.69
10.59
4.97
-2.60
-11.31
-20.16
-28.13
-34.54
-39.15
-42.13
-43.71
-43.99
-42.80
-39.87
-35.18
-29.15
-22.58
-16.43
-11.53
-8.35
-7.07
-7.68
-10.06
-13.86
-18.36
-22.47
-24.91
-24.69
-21.41
-15.48
-7.79
0.83
10.11
20.39
32.26
45.85
60.40
74.22
85.25
91.81
93.39
90.73
85.55
79.81
74.92
71.33
68.51
65.43
61.21
55.61
49.20
43.07
38.30
35.42
34.08
33.17
31.16
26.61
18.67
7.38
-6.18
-20.12
-32.12
-40.07
-42.67
-39.72
-32.13
-21.50
-9.64
1.93
12.16
20.44
26.38
29.74
30.30
28.01
23.07
15.97
7.55
-1.22
-9.35
-16.07
-20.97
-23.98
-25.29
-25.10
-23.41
-19.93
-14.07
-5.25
6.89
22.18
39.79
58.25
75.66
89.93
99.24
102.55
99.98
93.11
84.73
78.13
75.99
79.41
87.36
97.07
104.98
108.06
104.63
94.64
79.29
60.30
39.41
18.09
-2.36
-20.78
-36.13
-47.74
-55.53
-60.04
-62.23
-63.10
-63.39
-63.42
-63.12
-62.39
-61.23
-60.00
-59.30
-59.85
-62.14
-66.21
-71.50
-76.94
-81.18
-82.93
-81.18
-75.37
-65.44
-51.73
-34.92
-15.95
4.08
23.97
42.49
58.48
70.96
79.13
82.54
81.02
74.93
65.08
52.71
39.24
25.96
13.83
3.36
-5.14
-11.50
-15.52
-17.16
-16.65
-14.62
-12.07
-9.98
-9.04
-9.27
-9.96
-9.61
-6.21
2.42
17.88
40.58
69.10
100.14
129.29
152.21
166.07
170.32
166.51
157.29
145.09
131.23
115.73
97.97
77.38
54.08
28.91
3.07
-22.29
-46.26
-68.21
-87.62
-104.00
-116.98
-126.36
-132.27
-135.16
-135.71
-134.82
-133.55
-132.96
-133.87
-136.46
-139.89
-142.27
-140.95
-133.33
-117.80
-94.41
-65.10
-33.22
-2.56
23.72
43.86
57.71
66.30
71.17
73.57
74.12
72.79
69.22
63.13
54.58
43.98
31.97
19.27
6.64
-5.17
-15.34
-23.10
-27.80
-29.19
-27.48
-23.46
-18.37
-13.70
-10.91
-11.07
-14.32
-19.70
-25.11
-27.76
-25.02
-15.23
1.77
24.59
50.75
77.38
101.81
121.93
136.33
144.23
145.57
141.03
132.03
120.47
108.33
97.10
87.42
79.01
70.91
61.97
51.31
38.67
24.42
9.46
-5.15
-18.44
-29.81
-39.15
-46.90
-53.86
-60.96
-68.88
-77.59
-86.24
-93.22
-96.63
-94.91
-87.36
-74.50
-57.86
-39.64
-22.05
-6.86
4.94
13.08
17.75
19.34
18.28
15.03
10.23
4.75
-0.43
-4.40
-6.73
-7.55
-7.48
-7.38
-7.88
-9.23
-11.26
-13.61
-15.97
-18.32
-20.99
-24.54
-29.48
-35.97
-43.64
-51.49
-58.11
-62.02
-62.14
-57.98
-49.80
-38.41
-24.89
-10.37
4.09
17.53
29.03
37.73
43.05
44.82
43.46
39.87
35.15
30.24
25.74
21.80
18.28
15.05
12.10
9.60
7.70
6.43
5.61
4.80
3.50
1.16
-2.65
-8.15
-15.24
-23.35
-31.34
-37.67
-40.72
-39.29
-33.05
-22.67
-9.71
3.94
16.54
26.94
34.67
39.75
42.43
42.90
41.34
37.93
33.07
27.37
21.53
16.16
11.54
7.68
4.32
1.25
-1.67
-4.41
-6.91
-9.18
-11.44
-14.08
-17.58
-22.36
-28.50
-35.62
-42.74
-48.45
-51.21
-49.84
-43.92
-33.94
-21.18
-7.30
6.09
17.81
27.21
34.04
38.32
40.23
40.02
38.06
34.80
30.71
26.16
21.45
16.74
12.16
7.84
3.99
0.83
-1.47
-2.87
-3.50
-3.67
-3.75
-4.16
-5.27
-7.42
-10.79
-15.29
-20.39
-25.06
-27.99
-27.93
-24.10
-16.52
-6.03
6.01
18.08
28.90
37.57
43.54
46.59
46.77
44.42
40.22
35.00
29.56
24.35
19.38
14.32
8.77
2.54
-4.14
-10.76
-16.67
-21.25
-24.18
-25.48
-25.53
-25.07
-25.01
-26.10
-28.67
-32.37
-36.21
-38.92
-39.30
-36.60
-30.68
-21.85
-10.68
2.09
15.63
28.95
40.92
50.39
56.39
58.40
56.57
51.68
44.96
37.70
30.82
24.67
19.02
13.33
7.09
0.23
-6.78
-12.98
-17.21
-18.53
-16.58
-11.82
-5.56
0.23
3.42
2.42
-3.14
-12.03
-21.60
-28.64
-30.52
-26.23
-16.84
-5.05
5.86
13.18
15.56
13.04
6.59
-2.58
-13.47
-25.42
-38.00
-50.90
-63.89
-76.79
-89.40
-101.28
-111.64
-119.34
-123.17
-122.36
-116.90
-107.83
-97.05
-87.00
-80.06
-78.04
-81.50
-89.34
-98.93
-106.49
-108.16
-100.94
-83.38
-55.67
-19.22
23.86
71.16
119.99
167.42
210.26
245.48
270.80
285.26
289.46
285.39
275.85
263.85
251.97
242.02
234.83
230.39
228.06
226.95
226.34
225.95
225.96
226.83
229.13
233.35
239.74
248.11
257.52
266.27
272.20
273.46
269.33
260.56
248.96
236.36
223.62
210.20
194.72
175.97
153.87
129.70
105.45
82.89
62.84
45.09
28.81
13.20
-2.24
-17.70
-33.24
-49.04
-65.44
-82.85
-101.69
-122.33
-145.06
-170.32
-198.87
-231.71
-269.62
-312.43
-358.34
-403.64
-443.26
-471.99
-485.98
-484.01
-467.73
-441.02
-408.67
-374.99
-342.96
-314.08
-288.71
-266.57
-247.02
-229.27
-212.42
-195.65
-178.40
-160.59
-142.64
-125.38
-109.66
-96.06
-84.61
-74.92
-66.32
-58.18
-50.20
-42.57
-35.93
-31.15
-29.09
-30.26
-34.63
-41.48
-49.51
-56.96
-62.01
-63.10
-59.36
-50.89
-38.72
-24.56
-10.24
2.80
13.81
22.67
29.56
34.61
37.76
38.83
37.81
35.09
31.46
27.84
24.95
23.03
21.84
20.88
19.78
18.43
17.04
15.87
15.06
14.36
13.26
11.08
7.24
1.45
-6.13
-14.78
-23.25
-29.89
-33.04
-31.44
-24.59
-12.94
2.26
19.35
36.67
52.83
66.94
78.55
87.63
94.48
99.59
103.47
106.46
108.72
110.29
111.28
111.98
112.71
113.62
114.46
114.53
113.03
109.49
104.08
97.65
91.33
85.91
81.43
76.93
70.83
61.55
48.36
32.02
14.88
0.29
-8.48
-9.49
-2.85
9.32
23.81
37.49
48.25
55.39
59.33
61.21
62.53
64.88
69.51
76.47
83.81
87.43
82.21
64.22
32.97
-7.51
-49.73
-85.50
-109.01
-118.79
-117.54
-110.13
-101.13
-93.11
-86.51
-80.81
-75.90
-72.84
-73.50
-79.36
-90.29
-104.10
-117.08
-125.51
-127.14
-122.05
-112.57
-101.96
-92.98
-86.79
-82.93
-80.27
-78.17
-77.07
-78.13
-82.20
-88.86
-96.44
-102.78
-106.59
-108.29
-109.80
-113.39
-120.19
-129.40
-138.45
-144.13
-143.75
-135.78
-119.79
-96.07
-65.35
-28.87
11.13
51.27
87.23
114.77
131.09
136.06
132.61
125.94
121.70
123.85
133.11
146.81
160.21
168.52
168.61
159.54
142.11
117.89
88.64
56.37
23.66
-6.47
-31.01
-47.98
-56.90
-58.65
-54.82
-47.12
-37.15
-26.63
-17.54
-11.71
-10.03
-11.91
-15.40
-18.19
-18.85
-17.48
-15.50
-14.78
-16.59
-21.20
-27.86
-35.24
-41.83
-46.10
-46.77
-43.13
-35.37
-24.65
-12.86
-1.93
6.82
12.93
16.66
18.37
18.18
15.84
11.08
3.99
-4.74
-14.06
-22.92
-30.79
-37.85
-44.89
-52.89
-62.53
-73.65
-85.01
-94.36
-98.74
-95.28
-81.90
-57.97
-24.60
15.51
58.44
99.86
135.87
163.96
183.68
196.62
205.65
213.56
221.85
230.28
237.44
241.98
243.62
243.26
242.16
240.84
238.32
232.55
221.60
204.86
183.53
160.06
136.86
115.28
95.33
76.12
56.83
37.41
18.62
1.58
-12.91
-24.74
-34.57
-43.35
-51.87
-60.40
-68.69
-76.24
-82.64
-87.77
-91.91
-95.64
-99.71
-104.81
-111.27
-118.78
-126.30
-132.16
-134.60
-132.31
-124.98
-113.34
-98.88
-83.31
-68.14
-54.45
-42.88
-33.80
-27.34
-23.37
-21.53
-21.21
-21.75
-22.49
-22.88
-22.38
-20.64
-17.54
-13.35
-8.71
-4.42
-1.23
0.51
1.00
0.90
1.17
2.64
5.79
10.47
16.00
21.34
25.42
27.41
26.82
23.62
18.24
11.54
4.84
-0.35
-2.65
-1.20
4.05
12.23
21.95
31.67
40.08
46.26
49.66
50.02
47.40
42.13
34.83
26.26
17.22
8.39
0.40
-6.34
-11.61
-15.48
-18.29
-20.55
-22.80
-25.40
-28.54
-32.23
-36.31
-40.62
-45.02
-49.38
-53.67
-57.82
-61.86
-65.82
-69.65
-73.27
-76.51
-79.07
-80.55
-80.32
-77.53
-71.24
-60.70
-45.83
-27.50
-7.53
11.79
28.32
40.73
48.70
52.79
53.93
53.03
50.64
47.08
42.70
38.05
33.97
31.30
30.56
31.73
34.17
36.73
38.06
36.89
32.40
24.41
13.51
0.98
-11.60
-22.66
-30.99
-35.97
-37.55
-36.26
-33.03
-29.02
-25.27
-22.28
-19.69
-16.40
-10.91
-2.20
9.67
23.39
36.86
48.09
55.97
60.56
62.81
63.84
64.39
64.59
64.13
62.68
60.25
57.21
54.20
51.80
50.32
49.67
49.50
49.31
48.70
47.45
45.56
43.10
40.19
36.89
33.23
29.17
24.67
19.68
14.12
7.87
0.78
-7.21
-15.98
-25.10
-33.76
-40.88
-45.42
-46.67
-44.50
-39.47
-32.63
-25.26
-18.48
-13.04
-9.23
-6.94
-5.88
-5.68
-6.08
-6.83
-7.84
-9.02
-10.32
-11.67
-12.87
-13.74
-14.07
-13.78
-12.98
-11.91
-10.91
-10.25
-10.04
-10.20
-10.54
-10.83
-10.90
-10.76
-10.63
-10.98
-12.42
-15.49
-20.29
-26.25
-32.15
-36.43
-37.78
-35.59
-30.23
-22.76
-14.49
-6.49
0.70
6.90
12.06
16.03
18.48
19.09
17.83
15.05
11.49
8.03
5.43
4.14
4.23
5.46
7.48
9.92
12.52
15.03
17.24
18.91
19.88
20.02
19.31
17.73
15.21
11.63
6.78
0.63
-6.62
-14.32
-21.43
-26.69
-28.99
-27.74
-23.14
-16.26
-8.73
-2.20
2.19
4.05
3.57
1.07
-3.37
-9.72
-17.66
-26.31
-34.34
-40.57
-44.59
-47.05
-49.22
-52.24
-56.49
-61.51
-66.48
-70.95
-74.97
-78.95
-83.19
-87.64
-91.95
-95.84
-99.22
-102.32
-105.68
-110.17
-116.91
-126.89
-140.38
-156.42
-172.67
-186.01
-193.46
-193.19
-184.96
-169.92
-149.98
-127.09
-102.91
-78.69
-55.26
-33.15
-12.53
6.65
24.47
40.81
55.46
68.12
78.65
87.10
93.60
98.27
101.17
102.39
102.23
101.31
100.42
100.38
101.57
103.86
106.63
109.14
110.78
111.32
110.84
109.69
108.34
107.49
108.05
111.06
117.41
127.41
140.51
155.20
169.36
180.90
188.24
190.60
187.91
180.53
168.96
153.87
136.07
116.66
96.91
78.14
61.43
47.41
36.19
27.32
20.10
13.72
7.59
1.34
-5.12
-11.77
-18.50
-25.22
-31.91
-38.51
-44.94
-51.00
-56.48
-61.20
-65.10
-68.17
-70.26
-70.99
-69.74
-65.98
-59.53
-50.73
-40.39
-29.48
-18.83
-9.04
-0.53
6.37
11.34
14.26
15.34
15.27
15.04
15.60
17.48
20.48
23.86
26.63
28.06
27.99
26.83
25.35
24.39
24.74
26.93
31.00
36.26
41.28
44.27
43.73
39.25
31.78
23.33
16.05
11.28
9.02
8.18
7.33
5.44
2.25
-1.97
-6.86
-12.30
-18.26
-24.65
-31.19
-37.48
-43.25
-48.24
-52.08
-54.22
-54.16
-51.86
-48.08
-44.47
-42.90
-44.78
-50.46
-59.24
-69.70
-80.20
-89.22
-95.40
-97.85
-96.34
-91.43
-84.36
-76.37
-67.93
-58.31
-45.88
-28.94
-6.94
19.12
47.28
75.76
103.68
131.06
157.84
183.17
205.87
224.22
236.60
241.95
240.06
231.60
218.17
201.66
184.08
168.49
157.16
150.91
148.93
149.32
150.09
150.36
149.73
148.13
147.48
149.11
153.21
158.53
163.15
165.26
164.57
161.01
154.41
146.85
139.72
133.60
128.45
124.21
120.79
118.40
114.95
92.67
41.71
-35.70
-124.18
-204.33
-261.23
-296.58
-315.37
-323.21
-325.14
-319.54
-305.68
-284.30
-258.25
-231.48
-207.66
-187.83
-171.85
-158.89
-146.00
-131.46
-115.22
-99.15
-85.98
-77.88
-74.71
-75.29
-77.93
-79.90
-79.62
-76.94
-73.13
-70.06
-69.20
-70.44
-72.89
-75.29
-75.92
-73.78
-68.75
-61.59
-53.53
-45.83
-39.08
-33.58
-29.33
-25.89
-22.86
-19.95
-17.16
-14.75
-13.00
-11.98
-11.51
-11.29
-11.06
-10.74
-10.48
-10.51
-10.97
-11.80
-12.80
-13.75
-14.58
-15.42
-16.47
-17.90
-19.73
-21.86
-24.22
-26.78
-29.62
-32.73
-36.01
-39.13
-41.63
-43.05
-43.04
-41.42
-38.20
-33.51
-27.66
-21.13
-14.55
-8.61
-3.80
-0.34
1.89
3.21
3.99
4.48
4.80
5.10
5.60
6.66
8.59
11.52
15.26
19.35
23.26
26.47
28.70
29.87
30.06
29.49
28.37
26.89
25.14
23.11
20.73
17.93
14.70
11.09
7.25
3.43
0.07
-2.29
-2.98
-1.39
2.84
9.57
18.14
27.48
36.42
44.03
49.90
54.19
57.47
60.42
63.56
67.09
70.91
74.81
78.61
82.27
85.69
88.50
89.93
88.93
84.60
76.57
65.10
50.81
34.12
15.11
-6.26
-29.33
-52.21
-72.08
-86.28
-93.76
-95.78
-95.36
-95.71
-98.69
-104.08
-110.20
-115.06
-117.47
-117.28
-114.99
-111.31
-106.72
-101.46
-95.50
-88.64
-80.61
-71.49
-61.98
-53.36
-47.00
-43.66
-43.01
-43.93
-45.19
-46.04
-46.23
-45.70
-44.27
-41.80
-38.62
-35.58
-33.51
-32.48
-31.37
-28.50
-22.76
-14.37
-4.71
4.71
13.25
21.27
29.23
36.67
41.93
42.98
38.85
30.61
21.35
14.91
14.14
19.68
29.74
41.11
50.75
57.22
61.00
63.80
67.15
71.25
74.74
75.60
72.48
65.45
55.79
45.09
34.33
23.88
14.06
5.79
0.53
-0.70
1.78
6.04
9.53
10.44
8.79
6.17
4.68
5.56
8.59
12.44
15.66
17.43
17.75
17.12
16.14
15.34
15.27
16.59
19.67
24.32
29.45
33.56
35.28
34.12
30.48
25.32
19.50
13.47
7.42
1.44
-4.46
-10.59
-17.62
-26.16
-36.02
-45.85
-53.43
-56.92
-55.99
-52.09
-47.64
-44.45
-42.75
-41.31
-38.72
-34.54
-29.73
-25.82
-23.68
-22.73
-21.32
-17.97
-12.53
-6.46
-2.03
-1.04
-3.73
-8.66
-13.36
-15.56
-14.04
-9.06
-1.93
5.62
12.21
17.22
20.73
23.21
25.04
26.33
26.89
26.54
25.27
23.31
21.03
18.73
16.64
14.86
13.53
12.79
12.75
13.37
14.40
15.39
15.66
14.54
11.61
7.10
1.89
-2.72
-5.70
-6.82
-7.00
-7.81
-10.64
-15.88
-22.54
-28.74
-32.62
-33.14
-30.53
-25.86
-20.35
-14.77
-9.36
-4.14
0.59
4.19
5.93
5.49
3.29
0.49
-1.49
-1.55
0.73
5.08
10.83
17.27
23.71
29.51
33.92
36.33
36.53
34.87
32.21
29.51
27.43
26.11
25.29
24.43
22.80
19.55
13.96
5.83
-4.10
-13.97
-21.30
-23.99
-21.20
-13.87
-4.35
4.57
10.82
13.76
14.09
13.03
11.40
9.18
5.84
1.08
-4.56
-9.57
-12.24
-11.49
-7.63
-2.28
2.52
5.27
5.74
4.91
4.24
4.89
7.37
11.58
17.31
24.45
33.04
43.08
54.29
65.92
76.84
85.73
91.51
93.66
92.46
88.91
84.37
80.13
76.99
75.12
74.06
73.04
71.29
68.30
63.95
58.43
52.04
45.06
37.73
30.23
22.79
15.69
9.17
3.33
-1.97
-7.04
-12.30
-18.06
-24.43
-31.28
-38.32
-45.11
-51.18
-56.14
-59.72
-61.95
-63.09
-63.67
-64.23
-65.19
-66.63
-68.26
-69.46
-69.46
-67.56
-63.34
-56.78
-48.21
-38.23
-27.53
-16.70
-6.25
3.48
12.16
19.46
25.06
28.69
30.25
29.87
27.94
25.00
21.73
18.69
16.33
14.86
14.25
14.25
14.48
14.48
13.82
12.18
9.40
5.52
0.70
-4.82
-10.84
-17.14
-23.42
-29.23
-33.94
-36.88
-37.51
-35.58
-31.25
-24.98
-17.47
-9.48
-1.66
5.47
11.56
16.38
19.75
21.49
21.44
19.57
16.12
11.67
7.05
3.05
0.14
-1.78
-3.26
-4.95
-7.21
-9.87
-12.37
-13.97
-14.23
-13.15
-11.13
-8.81
-6.82
-5.64
-5.50
-6.29
-7.52
-8.41
-7.93
-5.15
0.44
8.81
19.27
30.80
42.32
52.87
61.74
68.46
72.74
74.46
73.68
70.63
65.70
59.39
52.23
44.71
37.22
30.01
23.15
16.59
10.25
4.07
-1.88
-7.46
-12.70
-17.83
-23.40
-30.08
-38.30
-47.98
-58.37
-68.17
-75.92
-80.45
-81.16
-78.08
-71.78
-63.04
-52.75
-41.79
-31.11
-21.64
-14.23
-9.45
-7.44
-7.86
-9.94
-12.76
-15.41
-17.22
-17.81
-17.14
-15.47
-13.32
-11.29
-9.91
-9.55
-10.29
-12.02
-14.48
-17.43
-20.72
-24.19
-27.69
-31.00
-33.85
-35.97
-37.09
-36.99
-35.44
-32.23
-27.29
-20.78
-13.18
-5.23
2.28
8.78
14.19
18.81
23.17
27.64
32.23
36.58
40.29
43.16
45.36
47.39
49.68
52.37
55.11
57.24
58.11
57.32
54.81
50.73
45.19
38.11
29.17
18.04
4.58
-10.91
-27.58
-43.99
-58.33
-68.81
-74.11
-73.85
-68.65
-59.94
-49.51
-38.91
-29.20
-20.88
-14.13
-9.03
-5.65
-4.03
-4.01
-5.24
-7.22
-9.45
-11.53
-13.23
-14.45
-15.15
-15.32
-14.92
-13.92
-12.27
-10.03
-7.36
-4.57
-2.05
-0.27
0.37
-0.42
-2.75
-6.36
-10.55
-14.20
-15.95
-14.71
-10.06
-2.48
6.74
15.95
23.76
29.41
32.91
34.85
35.91
36.68
37.43
38.22
38.92
39.36
39.31
38.57
37.02
34.70
31.95
29.25
27.20
26.16
26.18
26.83
27.34
26.83
24.46
19.67
12.22
2.25
-9.61
-22.25
-34.20
-43.86
-49.93
-51.74
-49.41
-43.79
-36.24
-28.20
-20.89
-15.10
-11.13
-8.88
-8.00
-8.03
-8.53
-9.15
-9.64
-9.81
-9.56
-8.98
-8.30
-7.92
-8.18
-9.31
-11.25
-13.73
-16.38
-18.97
-21.44
-23.94
-26.76
-30.13
-34.12
-38.43
-42.44
-45.28
-46.15
-44.54
-40.47
-34.48
-27.44
-20.20
-13.37
-7.23
-1.83
2.79
6.54
9.27
10.90
11.47
11.16
10.20
8.73
6.74
4.08
0.59
-3.77
-8.73
-13.67
-17.65
-19.61
-18.73
-14.75
-8.19
-0.27
7.39
13.27
16.38
16.52
14.29
10.90
7.84
6.48
7.76
12.03
18.99
27.78
37.28
46.35
54.10
59.96
63.66
65.10
64.33
61.54
57.14
51.75
46.08
40.73
36.00
31.78
27.62
22.92
17.34
10.97
4.28
-2.14
-8.00
-13.47
-19.16
-25.82
-34.02
-43.94
-55.35
-67.70
-80.09
-91.34
-100.02
-104.81
-104.84
-100.02
-91.20
-79.84
-67.50
-55.39
-44.15
-33.91
-24.68
-16.58
-10.06
-5.76
-4.17
-5.21
-8.05
-11.33
-13.68
-14.36
-13.56
-12.09
-10.70
-9.46
-7.69
-4.48
0.49
6.47
11.85
14.91
14.64
11.09
5.13
-2.06
-9.38
-15.88
-20.58
-22.53
-21.07
-16.11
-8.32
1.06
10.64
19.38
26.71
32.63
37.44
41.49
44.96
47.76
49.59
50.13
49.27
47.25
44.56
41.76
39.08
36.20
32.43
27.08
20.06
12.06
4.37
-1.69
-5.34
-6.57
-6.02
-4.76
-4.01
-5.00
-8.69
-15.37
-24.35
-33.84
-41.48
-45.17
-43.89
-38.14
-29.55
-20.09
-11.12
-2.96
4.90
13.12
21.82
30.36
37.68
42.86
45.62
46.38
45.97
45.02
43.56
41.06
36.74
30.24
22.04
13.49
6.37
2.17
1.43
3.43
6.43
8.28
7.27
2.79
-4.33
-12.28
-19.04
-23.48
-25.97
-28.26
-32.55
-40.06
-49.98
-59.45
-64.75
-63.03
-53.81
-39.09
-22.26
-6.39
7.09
18.51
28.89
38.62
46.67
51.11
50.37
44.40
34.92
24.54
15.36
8.10
2.10
-3.82
-10.39
-17.51
-24.43
-30.37
-34.97
-38.39
-40.96
-42.82
-43.80
-43.44
-41.26
-36.93
-30.48
-22.32
-13.25
-4.32
3.51
9.69
14.39
18.47
23.08
29.21
37.19
46.54
56.17
64.82
71.41
75.41
76.80
75.98
73.41
69.48
64.38
58.21
51.17
43.63
36.16
29.28
23.31
18.35
14.36
11.32
9.27
8.16
7.76
7.52
6.81
5.14
2.39
-1.24
-5.43
-10.03
-15.12
-20.92
-27.51
-34.73
-42.15
-49.19
-55.24
-59.67
-61.87
-61.35
-57.88
-51.73
-43.63
-34.65
-25.81
-17.87
-11.17
-5.73
-1.50
1.62
3.69
4.84
5.21
4.98
4.26
3.14
1.76
0.41
-0.58
-1.02
-0.94
-0.63
-0.38
-0.25
-0.08
0.44
1.46
2.82
4.22
5.39
6.32
7.14
7.86
8.12
7.18
4.34
-0.64
-7.24
-14.18
-19.89
-22.98
-22.71
-19.04
-12.57
-4.35
4.41
12.59
19.47
24.76
28.69
31.72
34.26
36.48
38.31
39.51
39.93
39.49
38.25
36.32
33.86
31.19
28.72
26.88
25.84
25.38
24.87
23.48
20.58
15.97
9.94
3.15
-3.68
-9.89
-15.10
-19.23
-22.50
-25.46
-28.84
-33.24
-38.80
-45.04
-50.89
-55.11
-56.72
-55.35
-51.34
-45.49
-38.79
-32.15
-26.32
-21.81
-18.96
-17.84
-18.18
-19.49
-21.16
-22.75
-23.97
-24.68
-24.62
-23.23
-19.79
-13.75
-5.06
5.84
18.17
31.17
44.39
57.58
70.62
83.41
95.83
107.70
118.73
128.24
135.16
138.20
136.48
130.02
119.82
107.30
93.13
76.81
57.03
32.94
5.32
-23.25
-49.55
-71.22
-87.69
-99.94
-109.25
-116.08
-119.81
-119.63
-115.68
-109.55
-103.63
-99.75
-97.99
-96.51
-92.59
-83.96
-69.86
-51.19
-29.88
-8.22
11.83
28.86
42.13
51.34
56.64
58.41
57.21
53.63
48.30
41.89
35.09
28.50
22.63
17.85
14.60
13.48
15.23
20.45
29.18
40.52
52.63
63.21
70.23
72.57
70.32
64.61
57.16
49.68
43.37
38.68
35.30
32.44
29.23
25.15
20.28
15.31
11.15
8.51
7.51
7.66
8.06
7.84
6.41
3.65
-0.25
-5.00
-10.36
-16.28
-22.69
-29.43
-36.09
-42.14
-47.19
-51.22
-54.57
-57.56
-60.27
-62.25
-62.84
-61.56
-58.51
-54.38
-50.14
-46.55
-43.89
-42.05
-40.70
-39.55
-38.35
-36.67
-33.99
-29.78
-24.01
-17.32
-10.90
-5.99
-3.21
-2.32
-2.28
-1.93
-0.49
1.95
4.57
6.15
5.54
2.17
-3.66
-10.54
-16.04
-17.11
-10.88
4.57
29.46
62.13
99.29
136.71
169.87
194.66
207.91
207.94
194.91
170.85
139.26
104.24
69.54
37.72
10.02
-13.46
-33.28
-50.15
-64.74
-77.55
-88.90
-99.02
-107.98
-115.86
-122.71
-128.57
-133.36
-136.77
-138.17
-136.90
-132.53
-125.21
-115.76
-105.44
-95.63
-87.43
-81.46
-77.77
-75.93
-75.15
-74.30
-72.12
-67.38
-59.20
-47.36
-32.40
-15.62
1.25
16.37
28.25
35.93
39.20
38.57
35.14
30.44
25.99
23.01
21.98
22.68
24.23
25.50
25.40
23.20
18.64
11.86
3.29
-6.47
-16.77
-26.95
-36.38
-44.43
-50.54
-54.33
-55.82
-55.46
-54.11
-52.74
-51.98
-51.66
-50.65
-47.11
-39.04
-25.06
-4.98
19.90
47.10
73.50
96.04
112.25
120.62
120.72
113.31
100.29
84.46
68.99
56.58
48.59
44.63
42.72
40.14
34.59
24.99
11.72
-3.78
-19.82
-35.04
-48.61
-60.08
-69.21
-75.80
-79.87
-81.82
-82.35
-82.16
-81.47
-79.61
-75.15
-66.27
-51.59
-30.69
-4.47
25.06
55.22
83.12
106.07
121.91
129.28
128.04
119.46
106.18
91.59
78.90
70.08
65.34
63.15
61.09
56.86
49.17
38.09
24.76
10.78
-2.43
-14.02
-23.80
-32.04
-39.30
-46.07
-52.55
-58.45
-63.01
-65.09
-63.52
-57.63
-47.53
-34.31
-19.70
-5.56
6.81
17.01
25.51
33.34
41.49
50.53
60.56
71.34
82.63
94.29
106.25
118.07
128.74
136.59
139.73
136.64
126.77
110.74
90.21
67.38
44.51
23.45
5.48
-8.86
-19.74
-28.02
-35.03
-42.21
-50.66
-60.70
-71.79
-82.75
-92.09
-98.53
-101.26
-100.06
-95.23
-87.54
-78.06
-68.05
-58.80
-51.40
-46.53
-44.33
-44.29
-45.46
-46.66
-46.95
-45.87
-43.61
-40.73
-37.87
-35.34
-33.01
-30.45
-27.27
-23.38
-19.11
-15.03
-11.72
-9.59
-8.84
-9.49
-11.49
-14.63
-18.49
-22.34
-25.19
-26.07
-24.26
-19.51
-12.11
-2.81
7.38
17.41
26.35
33.57
38.74
41.84
43.12
42.94
41.73
39.83
37.51
34.95
32.28
29.56
26.78
23.94
20.97
17.91
14.83
11.86
9.13
6.69
4.50
2.38
0.10
-2.70
-6.37
-11.12
-16.84
-22.97
-28.48
-32.21
-33.17
-30.98
-25.98
-19.02
-11.09
-3.05
4.57
11.50
17.52
22.43
26.06
28.35
29.40
29.42
28.65
27.29
25.57
23.79
22.30
21.39
21.15
21.41
21.81
21.98
21.70
20.96
19.89
18.58
16.98
14.87
12.03
8.33
3.85
-1.16
-6.32
-11.14
-15.07
-17.47
-17.71
-15.37
-10.43
-3.34
5.03
13.74
21.98
29.32
35.61
40.83
44.88
47.50
48.43
47.54
45.02
41.31
36.89
32.17
27.33
22.43
17.49
12.55
7.70
2.98
-1.64
-6.21
-10.78
-15.28
-19.58
-23.48
-26.82
-29.40
-31.16
-32.08
-32.33
-32.27
-32.34
-32.86
-33.81
-34.72
-34.88
-33.61
-30.56
-25.85
-19.98
-13.61
-7.36
-1.80
2.55
5.22
5.85
4.34
0.96
-3.68
-8.81
-13.69
-17.79
-20.76
-22.32
-22.29
-20.60
-17.43
-13.33
-9.07
-5.43
-2.87
-1.37
-0.47
0.45
1.91
4.06
6.70
9.41
11.67
13.09
13.47
12.86
11.67
10.57
10.42
11.96
15.61
21.24
28.14
35.29
41.69
46.62
49.83
51.43
51.75
51.14
49.92
48.31
46.48
44.61
42.86
41.35
40.14
39.15
38.21
37.07
35.48
33.23
30.23
26.50
22.23
17.72
13.35
9.44
6.16
3.45
1.04
-1.42
-4.13
-7.00
-9.57
-11.16
-11.15
-9.15
-5.25
0.06
6.04
11.90
16.99
20.90
23.40
24.50
24.27
22.90
20.56
17.51
14.00
10.36
6.93
4.03
1.86
0.38
-0.58
-1.27
-1.84
-2.26
-2.37
-2.04
-1.37
-0.71
-0.60
-1.47
-3.47
-6.40
-9.85
-13.39
-16.77
-19.83
-22.44
-24.33
-25.12
-24.36
-21.84
-17.67
-12.38
-6.75
-1.65
2.24
4.45
4.83
3.41
0.37
-4.09
-9.76
-16.40
-23.72
-31.30
-38.63
-45.15
-50.42
-54.24
-56.75
-58.28
-59.11
-59.24
-58.26
-55.54
-50.48
-42.79
-32.61
-20.40
-6.82
7.29
20.79
32.20
39.81
42.27
39.17
31.49
21.44
11.64
4.14
-0.31
-2.36
-3.41
-4.79
-7.13
-10.21
-13.32
-15.74
-17.15
-17.71
-17.87
-18.21
-19.12
-20.77
-23.04
-25.60
-27.96
-29.71
-30.63
-30.79
-30.51
-30.14
-29.85
-29.52
-28.77
-27.14
-24.21
-19.76
-13.87
-7.04
-0.34
4.79
6.78
4.55
-1.96
-11.53
-21.81
-29.95
-33.46
-30.86
-22.09
-8.43
7.86
24.01
37.33
45.61
47.65
43.34
33.65
20.33
5.47
-8.89
-21.00
-29.62
-34.04
-34.18
-30.54
-24.11
-16.18
-8.04
-0.72
5.15
9.30
11.79
12.81
12.69
11.86
10.93
10.67
11.76
14.61
19.02
24.19
28.88
31.91
32.66
31.42
29.33
27.99
28.74
32.09
37.44
43.25
47.62
48.97
46.56
40.60
31.93
21.58
10.23
-1.91
-14.89
-28.60
-42.34
-54.88
-64.80
-71.10
-73.60
-73.08
-70.80
-67.92
-64.92
-61.42
-56.38
-48.58
-37.04
-21.23
-1.23
22.28
48.04
74.11
98.12
117.62
130.70
136.48
135.27
128.28
116.95
102.47
85.47
66.31
45.54
24.17
3.65
-14.57
-29.52
-41.07
-49.81
-56.66
-62.38
-67.18
-70.77
-72.55
-72.04
-69.17
-64.38
-58.53
-52.57
-47.29
-43.04
-39.73
-36.83
-33.61
-29.40
-23.84
-17.02
-9.54
-2.31
3.83
8.38
11.42
13.54
15.57
18.22
21.85
26.30
30.99
35.01
37.41
37.44
34.71
29.31
21.75
12.74
2.91
-7.22
-17.36
-27.34
-36.94
-45.91
-54.03
-61.21
-67.60
-73.45
-78.95
-83.99
-88.04
-90.08
-88.88
-83.28
-72.60
-56.79
-36.55
-13.14
11.88
37.08
61.52
84.92
107.57
129.97
152.30
173.91
193.07
207.20
213.48
209.65
194.71
169.32
135.67
97.02
57.19
19.96
-11.52
-35.12
-50.26
-58.02
-60.83
-61.79
-63.67
-68.16
-75.46
-84.44
-93.29
-100.13
-103.59
-102.97
-98.30
-90.21
-79.84
-68.61
-58.04
-49.31
-43.11
-39.43
-37.75
-37.21
-36.97
-36.36
-35.01
-32.85
-30.02
-26.78
-23.53
-20.65
-18.47
-17.21
-16.95
-17.53
-18.64
-19.82
-20.57
-20.55
-19.69
-18.24
-16.79
-15.95
-16.19
-17.58
-19.66
-21.56
-22.27
-20.87
-16.95
-10.66
-2.74
5.76
13.77
20.51
25.64
29.15
31.22
32.07
31.83
30.70
28.95
27.05
25.51
24.75
24.85
25.57
26.42
26.89
26.65
25.64
24.02
21.97
19.57
16.66
12.99
8.26
2.32
-4.74
-12.47
-20.18
-26.99
-32.01
-34.54
-34.31
-31.48
-26.71
-20.89
-14.89
-9.33
-4.47
-0.32
3.13
5.84
7.62
8.33
7.99
6.90
5.56
4.50
4.01
4.12
4.55
4.94
5.10
5.02
4.93
5.02
5.36
5.79
6.01
5.69
4.62
2.74
0.15
-2.87
-5.95
-8.60
-10.26
-10.42
-8.78
-5.40
-0.69
4.68
10.04
14.81
18.71
21.61
23.48
24.27
23.94
22.47
20.04
17.04
13.97
11.36
9.51
8.46
7.97
7.65
7.12
6.21
4.98
3.65
2.50
1.72
1.28
0.99
0.48
-0.68
-2.79
-5.92
-9.81
-13.85
-17.19
-18.94
-18.41
-15.38
-10.20
-3.76
2.81
8.42
12.43
14.68
15.49
15.34
14.62
13.53
12.06
10.20
8.10
6.05
4.38
3.26
2.65
2.27
1.80
1.04
0.01
-1.09
-2.02
-2.62
-2.96
-3.29
-3.93
-5.17
-7.17
-9.87
-13.02
-16.16
-18.70
-19.99
-19.55
-17.12
-12.82
-7.14
-0.73
5.72
11.69
16.91
21.28
24.77
27.32
28.81
29.13
28.24
26.23
23.35
19.96
16.48
13.27
10.62
8.61
7.12
5.87
4.56
3.00
1.20
-0.64
-2.23
-3.39
-4.16
-4.79
-5.62
-6.87
-8.64
-10.89
-13.48
-16.13
-18.34
-19.29
-18.04
-13.95
-7.16
1.19
9.19
14.86
16.98
15.60
11.90
7.64
4.23
2.27
1.49
1.20
0.83
0.26
-0.30
-0.54
-0.34
0.08
0.38
0.27
-0.26
-0.95
-1.42
-1.41
-0.95
-0.34
-0.03
-0.48
-1.93
-4.36
-7.55
-11.10
-14.59
-17.57
-19.64
-20.45
-19.77
-17.53
-13.89
-9.23
-4.07
1.03
5.62
9.46
12.44
14.60
16.02
16.73
16.79
16.16
14.89
13.07
10.93
8.79
7.01
5.82
5.27
5.20
5.31
5.29
4.92
4.17
3.09
1.80
0.39
-1.11
-2.71
-4.42
-6.27
-8.28
-10.48
-12.89
-15.35
-17.56
-19.01
-19.14
-17.52
-14.04
-9.03
-3.14
2.81
8.07
12.15
14.90
16.45
17.09
17.05
16.50
15.49
14.05
12.27
10.34
8.53
7.08
6.12
5.61
5.39
5.26
4.99
4.49
3.70
2.63
1.35
-0.07
-1.53
-2.95
-4.22
-5.33
-6.38
-7.53
-9.00
-10.91
-13.18
-15.44
-17.10
-17.49
-16.14
-12.94
-8.26
-2.84
2.49
7.06
10.57
12.97
14.45
15.21
15.36
14.97
14.12
12.92
11.55
10.21
9.03
8.06
7.28
6.66
6.16
5.72
5.29
4.73
3.94
2.89
1.64
0.34
-0.86
-1.88
-2.79
-3.75
-4.97
-6.65
-8.86
-11.56
-14.52
-17.33
-19.41
-20.14
-19.07
-16.08
-11.51
-6.11
-0.81
3.60
6.74
8.64
9.62
10.05
10.13
9.88
9.25
8.22
6.95
5.66
4.58
3.89
3.65
3.85
4.42
5.22
6.02
6.53
6.47
5.73
4.37
2.69
1.03
-0.33
-1.28
-1.91
-2.40
-3.07
-4.17
-5.87
-8.13
-10.65
-12.85
-14.00
-13.51
-11.10
-7.01
-1.93
3.32
7.98
11.61
14.11
15.61
16.28
16.23
15.50
14.11
12.17
9.91
7.62
5.59
3.95
2.69
1.65
0.67
-0.35
-1.42
-2.45
-3.30
-3.89
-4.17
-4.14
-3.88
-3.46
-3.01
-2.69
-2.73
-3.35
-4.72
-6.86
-9.55
-12.28
-14.33
-15.00
-13.82
-10.79
-6.35
-1.32
3.45
7.29
9.88
11.22
11.50
10.97
9.85
8.35
6.69
5.10
3.79
2.93
2.53
2.53
2.77
3.07
3.24
3.13
2.65
1.80
0.69
-0.54
-1.71
-2.74
-3.64
-4.52
-5.56
-6.92
-8.66
-10.75
-12.99
-15.05
-16.51
-16.93
-15.95
-13.47
-9.68
-5.04
-0.20
4.22
7.75
10.21
11.64
12.22
12.16
11.59
10.61
9.30
7.79
6.29
4.96
3.87
2.96
2.05
1.02
-0.16
-1.29
-2.06
-2.21
-1.71
-0.79
0.14
0.61
0.29
-0.97
-3.14
-6.09
-9.56
-13.24
-16.65
-19.28
-20.67
-20.54
-18.94
-16.15
-12.63
-8.83
-5.01
-1.33
2.18
5.40
8.18
10.27
11.49
11.82
11.37
10.43
9.30
8.19
7.23
6.46
5.90
5.59
5.50
5.54
5.49
5.03
3.93
2.10
-0.30
-2.96
-5.58
-8.04
-10.34
-12.49
-14.41
-15.75
-16.05
-14.92
-12.26
-8.33
-3.70
0.97
5.11
8.35
10.53
11.65
11.80
11.10
9.78
8.07
6.23
4.48
2.97
1.79
0.99
0.56
0.43
0.49
0.58
0.56
0.31
-0.15
-0.76
-1.41
-1.97
-2.41
-2.77
-3.15
-3.72
-4.60
-5.86
-7.48
-9.35
-11.32
-13.13
-14.41
-14.74
-13.68
-10.88
-6.34
-0.45
5.95
11.79
16.06
18.15
17.97
16.05
13.18
10.19
7.70
6.01
5.13
4.88
4.98
5.18
5.24
5.05
4.54
3.80
2.97
2.18
1.48
0.83
0.12
-0.69
-1.62
-2.64
-3.69
-4.78
-5.95
-7.21
-8.55
-9.88
-11.16
-12.37
-13.58
-14.79
-15.90
-16.54
-16.21
-14.45
-11.03
-6.18
-0.49
5.19
10.06
13.61
15.67
16.37
15.97
14.80
13.15
11.29
9.51
8.04
7.00
6.31
5.78
5.14
4.23
3.10
1.96
1.09
0.64
0.57
0.68
0.65
0.24
-0.64
-1.87
-3.12
-4.01
-4.23
-3.74
-2.87
-2.20
-2.43
-4.09
-7.23
-11.37
-15.57
-18.77
-20.05
-18.95
-15.52
-10.31
-4.11
2.18
7.77
12.15
15.09
16.66
17.11
16.75
15.86
14.65
13.27
11.87
10.56
9.44
8.49
7.60
6.61
5.36
3.82
2.07
0.27
-1.39
-2.75
-3.76
-4.43
-4.87
-5.21
-5.56
-5.92
-6.19
-6.24
-5.99
-5.51
-4.98
-4.71
-4.94
-5.85
-7.45
-9.61
-12.10
-14.50
-16.32
-17.07
-16.41
-14.32
-11.07
-7.19
-3.21
0.46
3.62
6.17
8.11
9.45
10.26
10.65
10.80
10.87
10.93
10.98
10.96
10.79
10.47
10.03
9.51
8.93
8.27
7.55
6.77
5.95
5.07
4.05
2.76
1.11
-0.89
-3.11
-5.29
-7.12
-8.35
-8.92
-8.97
-8.90
-9.07
-9.69
-10.58
-11.20
-10.89
-9.28
-6.57
-3.56
-1.35
-0.77
-1.92
-4.13
-6.11
-6.49
-4.25
1.17
9.87
21.60
35.52
50.04
62.73
70.80
71.97
65.44
52.41
35.69
18.73
4.32
-6.13
-12.76
-16.61
-18.88
-20.38
-21.45
-22.24
-22.90
-23.72
-24.94
-26.59
-28.27
-29.30
-28.84
-26.24
-21.36
-14.68
-7.24
-0.27
5.28
9.08
11.48
13.18
14.64
15.79
15.92
14.19
10.22
4.43
-1.95
-7.44
-10.94
-12.11
-11.43
-9.69
-7.61
-5.50
-3.37
-1.19
0.83
2.28
2.68
1.83
-0.05
-2.35
-4.28
-5.31
-5.28
-4.54
-3.67
-3.18
-3.31
-3.93
-4.69
-5.22
-5.35
-5.11
-4.71
-4.35
-4.16
-4.16
-4.35
-4.77
-5.55
-6.85
-8.73
-11.00
-13.21
-14.75
-14.99
-13.57
-10.50
-6.22
-1.42
3.19
7.08
10.01
12.00
13.16
13.58
13.31
12.34
10.78
8.87
6.95
5.34
4.24
3.65
3.45
3.48
3.56
3.60
3.51
3.24
2.77
2.09
1.27
0.40
-0.45
-1.28
-2.12
-3.02
-4.04
-5.22
-6.63
-8.35
-10.41
-12.67
-14.72
-15.96
-15.78
-13.77
-10.01
-5.02
0.41
5.47
9.62
12.72
14.92
16.48
17.58
18.27
18.49
18.20
17.47
16.46
15.35
14.17
12.81
11.01
8.57
5.44
1.80
-1.96
-5.42
-8.30
-10.50
-12.12
-13.41
-14.57
-15.71
-16.78
-17.67
-18.30
-18.68
-18.98
-19.46
-20.36
-21.77
-23.53
-25.27
-26.53
-26.94
-26.37
-24.88
-22.70
-20.08
-17.27
-14.45
-11.88
-9.81
-8.43
-7.67
-7.04
-5.73
-2.89
2.04
8.97
17.16
25.53
33.01
38.88
42.87
45.01
45.45
44.38
42.16
39.42
37.08
36.01
36.64
38.72
41.34
43.29
43.55
41.66
37.72
32.16
25.44
17.85
9.52
0.61
-8.55
-17.39
-25.23
-31.50
-35.92
-38.52
-39.61
-39.63
-38.98
-37.91
-36.54
-34.88
-32.97
-30.97
-29.14
-27.73
-26.92
-26.68
-26.79
-26.95
-26.86
-26.34
-25.34
-23.92
-22.19
-20.28
-18.34
-16.50
-14.93
-13.74
-12.99
-12.60
-12.40
-12.15
-11.67
-10.88
-9.80
-8.58
-7.44
-6.59
-6.14
-6.11
-6.33
-6.44
-6.02
-4.63
-2.03
1.78
6.48
11.54
16.38
20.54
23.76
26.03
27.43
28.05
27.89
26.91
25.13
22.72
20.00
17.41
15.34
13.99
13.30
13.00
12.72
12.12
11.11
9.77
8.34
7.08
6.13
5.44
4.84
4.06
2.91
1.25
-0.97
-3.66
-6.47
-8.76
-9.73
-8.70
-5.54
-0.90
3.88
7.25
8.15
6.47
3.07
-0.64
-3.34
-4.38
-3.94
-2.71
-1.51
-0.85
-0.85
-1.25
-1.78
-2.18
-2.35
-2.26
-1.87
-1.11
0.08
1.63
3.24
4.52
5.10
4.77
3.60
1.87
-0.07
-2.01
-3.94
-6.02
-8.44
-11.19
-13.99
-16.32
-17.59
-17.34
-15.41
-11.97
-7.52
-2.69
1.86
5.62
8.28
9.74
10.11
9.62
8.55
7.20
5.79
4.48
3.36
2.50
1.98
1.89
2.29
3.19
4.48
5.97
7.47
8.83
10.02
11.05
11.93
12.54
12.64
11.96
10.32
7.74
4.45
0.80
-2.81
-5.98
-8.35
-9.57
-9.38
-7.65
-4.56
-0.57
3.61
7.29
10.03
11.71
12.58
12.98
13.25
13.56
13.88
14.09
14.10
13.84
13.34
12.61
11.57
10.16
8.29
5.99
3.40
0.72
-1.79
-3.97
-5.76
-7.19
-8.33
-9.20
-9.81
-10.19
-10.44
-10.75
-11.35
-12.32
-13.59
-14.77
-15.34
-14.84
-12.99
-9.88
-5.89
-1.58
2.47
5.85
8.35
9.95
10.72
10.76
10.20
9.18
7.86
6.46
5.18
4.19
3.53
3.15
2.92
2.70
2.37
1.84
1.06
-0.03
-1.40
-2.94
-4.42
-5.52
-6.00
-5.74
-4.91
-3.94
-3.38
-3.75
-5.35
-8.09
-11.55
-15.01
-17.68
-18.93
-18.40
-16.08
-12.20
-7.19
-1.57
4.10
9.26
13.39
16.09
17.16
16.62
14.72
11.87
8.62
5.51
3.04
1.51
0.96
1.16
1.73
2.23
2.38
2.07
1.38
0.44
-0.69
-2.04
-3.74
-5.93
-8.64
-11.73
-14.89
-17.68
-19.82
-21.25
-22.26
-23.29
-24.64
-26.23
-27.48
-27.62
-26.01
-22.47
-17.08
-9.89
-0.72
10.54
23.52
37.07
49.63
60.32
69.72
79.84
92.94
109.92
129.47
148.62
164.54
176.17
184.79
193.13
203.60
217.00
232.35
247.59
260.47
268.88
270.78
264.18
247.72
221.47
187.46
149.39
111.38
76.74
47.17
22.95
3.52
-11.81
-23.61
-32.33
-38.33
-41.88
-43.07
-42.07
-39.52
-36.95
-36.68
-41.13
-51.66
-67.66
-86.63
-105.09
-120.09
-130.13
-134.98
-134.65
-128.51
-115.48
-95.17
-68.91
-39.76
-11.22
14.68
38.09
60.64
83.25
104.36
119.78
124.49
115.23
92.14
58.62
19.41
-21.46
-61.59
-99.85
-135.25
-166.27
-191.05
-208.26
-217.74
-220.71
-219.26
-215.47
-210.78
-205.77
-200.44
-194.64
-188.42
-182.13
-176.19
-170.82
-165.82
-160.50
-154.02
-145.67
-135.20
-122.90
-109.52
-96.04
-83.42
-72.40
-63.39
-56.46
-51.33
-47.46
-44.22
-41.03
-37.46
-33.36
-28.74
-23.84
-18.98
-14.69
-11.55
-10.03
-10.25
-11.83
-13.85
-15.24
-15.13
-13.26
-9.98
-6.04
-2.19
1.13
3.83
6.03
7.79
8.99
9.45
9.04
7.88
6.41
5.21
4.75
5.26
6.59
8.28
9.76
10.54
10.36
9.20
7.30
5.01
2.66
0.49
-1.42
-3.14
-4.87
-6.77
-8.95
-11.31
-13.58
-15.30
-16.00
-15.36
-13.30
-10.09
-6.15
-1.94
2.17
5.98
9.40
12.36
14.74
16.45
17.37
17.54
17.10
16.24
15.16
14.03
12.98
12.09
11.44
10.99
10.66
10.31
9.78
9.04
8.10
7.06
5.95
4.75
3.35
1.63
-0.49
-2.97
-5.66
-8.30
-10.54
-12.00
-12.33
-11.31
-8.88
-5.21
-0.67
4.32
9.26
13.80
17.65
20.66
22.77
23.99
24.33
23.89
22.78
21.16
19.27
17.37
15.75
14.64
14.10
14.06
14.26
14.40
14.25
13.75
13.00
12.17
11.41
10.74
10.07
9.22
8.03
6.40
4.21
1.41
-1.94
-5.57
-8.86
-10.93
-10.91
-8.33
-3.37
3.09
9.74
15.35
19.08
20.77
20.77
19.70
18.14
16.52
15.05
13.88
13.14
12.93
13.29
14.08
15.00
15.69
15.82
15.19
13.81
11.84
9.50
7.03
4.56
2.21
0.02
-2.01
-3.87
-5.59
-7.14
-8.55
-9.84
-11.14
-12.59
-14.31
-16.32
-18.40
-20.15
-21.05
-20.68
-18.86
-15.80
-11.94
-7.88
-4.15
-1.11
1.08
2.41
2.92
2.67
1.74
0.24
-1.55
-3.34
-4.80
-5.73
-6.05
-5.86
-5.36
-4.74
-4.20
-3.84
-3.75
-3.96
-4.45
-5.19
-6.10
-7.11
-8.21
-9.37
-10.63
-12.03
-13.63
-15.53
-17.87
-20.71
-23.91
-27.09
-29.59
-30.71
-29.90
-27.06
-22.56
-17.16
-11.67
-6.77
-2.78
0.32
2.70
4.55
5.95
6.86
7.19
6.94
6.18
5.14
4.10
3.30
2.98
3.29
4.30
6.02
8.33
10.94
13.51
15.69
17.26
18.19
18.63
18.82
18.88
18.82
18.50
17.67
16.17
13.95
11.15
8.04
5.05
2.67
1.37
1.46
3.02
5.85
9.46
13.29
16.78
19.57
21.47
22.47
22.63
21.99
20.62
18.59
16.11
13.58
11.52
10.43
10.67
12.26
14.89
17.98
20.86
22.96
23.97
23.83
22.71
20.89
18.62
16.04
13.25
10.25
7.07
3.78
0.47
-2.84
-6.14
-9.46
-12.68
-15.47
-17.33
-17.76
-16.47
-13.60
-9.57
-4.94
-0.20
4.42
8.80
12.86
16.39
19.11
20.83
21.60
21.74
21.70
21.83
22.26
22.87
23.42
23.79
23.94
23.97
23.98
24.04
24.07
23.96
23.59
22.87
21.78
20.33
18.58
16.62
14.60
12.64
10.86
9.29
7.84
6.31
4.47
2.06
-1.04
-4.71
-8.55
-11.92
-14.10
-14.51
-12.90
-9.41
-4.53
1.09
6.80
12.05
16.47
19.82
21.97
22.94
22.86
21.96
20.49
18.70
16.80
14.98
13.36
12.03
10.99
10.19
9.56
9.03
8.61
8.30
8.08
7.86
7.47
6.76
5.66
4.24
2.69
1.26
0.10
-0.75
-1.50
-2.44
-3.92
-6.23
-9.38
-13.14
-16.93
-19.96
-21.45
-20.83
-17.93
-13.05
-6.90
-0.34
5.81
10.95
14.74
17.09
18.06
17.82
16.67
14.96
13.12
11.53
10.45
9.97
9.96
10.14
10.16
9.66
8.40
6.36
3.69
0.75
-2.09
-4.50
-6.28
-7.39
-7.88
-7.90
-7.64
-7.25
-6.90
-6.71
-6.74
-7.00
-7.49
-8.22
-9.16
-10.23
-11.31
-12.14
-12.42
-11.88
-10.32
-7.74
-4.32
-0.38
3.65
7.36
10.39
12.54
13.77
14.17
13.91
13.20
12.21
11.08
9.93
8.89
8.08
7.55
7.34
7.40
7.67
8.03
8.38
8.61
8.61
8.28
7.60
6.65
5.62
4.82
4.61
5.24
6.84
9.34
12.50
15.98
19.37
22.26
24.39
25.61
26.02
25.90
25.62
25.57
25.97
26.83
27.95
29.05
29.95
30.61
31.21
31.92
32.77
33.41
33.14
31.04
26.34
18.60
8.04
-4.64
-18.22
-31.31
-42.40
-50.18
-53.82
-53.21
-49.16
-43.20
-37.20
-32.69
-30.40
-30.15
-31.08
-32.18
-32.80
-32.85
-32.66
-32.70
-33.28
-34.36
-35.62
-36.57
-36.66
-35.44
-32.64
-28.24
-22.49
-15.92
-9.15
-2.84
2.52
6.65
9.42
10.86
11.11
10.38
8.97
7.25
5.63
4.47
4.01
4.42
5.81
8.22
11.68
16.10
21.27
26.94
32.91
39.17
45.95
53.62
62.44
72.38
83.05
93.74
103.55
111.58
117.00
119.11
117.40
111.70
102.27
89.83
75.34
59.72
43.60
27.26
10.88
-5.18
-20.17
-32.99
-42.56
-48.17
-49.82
-48.27
-44.76
-40.70
-37.31
-35.46
-35.50
-37.39
-40.71
-44.82
-48.95
-52.38
-54.53
-55.08
-53.99
-51.39
-47.61
-42.95
-37.80
-32.59
-27.86
-24.17
-21.96
-21.24
-21.54
-21.96
-21.46
-19.21
-14.91
-8.83
-1.61
6.14
14.06
22.22
30.89
40.27
50.16
59.83
68.20
74.34
78.02
79.92
81.50
84.25
89.18
96.45
105.39
114.78
123.09
128.72
130.19
126.57
117.91
105.39
91.23
77.91
67.25
59.83
55.00
51.44
47.98
44.14
40.22
36.99
35.23
35.28
36.81
38.72
39.51
37.80
33.20
26.60
19.88
14.94
12.63
12.32
12.35
11.13
7.96
3.19
-2.53
-9.38
-18.78
-32.82
-52.70
-77.29
-102.46
-122.01
-129.71
-121.65
-97.82
-62.09
-21.05
18.05
49.06
67.95
72.98
64.30
43.57
13.69
-21.30
-56.71
-87.95
-111.69
-126.61
-133.58
-135.02
-133.90
-132.73
-132.87
-134.44
-136.65
-138.25
-137.94
-134.79
-128.34
-118.76
-106.82
-93.87
-81.60
-71.67
-65.35
-63.06
-64.24
-67.45
-70.84
-72.77
-72.34
-69.58
-65.23
-60.29
-55.62
-51.71
-48.71
-46.47
-44.57
-42.27
-38.53
-32.34
-23.07
-10.94
2.89
16.78
29.14
39.09
46.63
52.48
57.72
63.35
70.24
79.05
90.23
103.90
119.67
136.54
153.02
167.45
178.36
184.73
186.17
182.81
175.18
164.04
150.19
134.23
116.54
97.30
76.82
55.67
34.87
15.74
-0.36
-12.33
-19.69
-22.71
-22.54
-20.91
-19.68
-20.11
-22.26
-24.85
-25.62
-22.38
-14.11
-1.72
12.10
23.95
31.22
33.39
32.20
30.84
32.54
39.36
51.74
68.78
88.80
109.78
129.47
145.34
154.84
155.92
147.71
130.98
107.89
81.22
53.29
25.22
-3.21
-33.06
-65.29
-99.90
-135.64
-170.42
-202.26
-230.10
-253.88
-273.99
-290.30
-301.62
-306.33
-303.61
-294.55
-282.03
-269.39
-258.49
-248.62
-237.02
-220.69
-198.51
-172.16
-145.46
-122.48
-105.80
-95.75
-90.97
-89.42
-89.36
-89.50
-88.81
-86.18
-80.49
-71.07
-58.20
-43.36
-28.77
-16.64
-8.36
-4.08
-2.92
-3.64
-5.28
-7.51
-10.38
-13.88
-17.59
-20.87
-23.29
-25.06
-27.10
-30.50
-35.84
-42.71
-49.91
-56.06
-60.18
-61.84
-60.96
-57.43
-50.91
-41.12
-28.26
-13.26
2.43
17.04
28.79
35.97
37.26
32.10
21.12
6.16
-10.16
-25.26
-37.19
-44.81
-47.57
-45.25
-38.28
-28.38
-19.07
-15.11
-20.89
-38.34
-65.44
-96.54
-124.21
-142.02
-146.74
-139.12
-123.15
-104.38
-87.87
-76.64
-70.92
-68.50
-65.84
-59.32
-46.26
-25.24
4.11
41.33
85.02
132.34
178.77
218.81
247.64
263.25
267.59
266.09
265.42
270.53
282.64
298.97
314.60
324.93
327.84
324.27
317.28
310.53
306.83
307.53
312.58
320.90
330.60
339.16
343.28
339.33
324.09
295.93
255.72
206.77
154.03
102.62
56.54
17.96
-12.67
-36.13
-53.88
-67.66
-79.39
-91.16
-104.98
-122.30
-143.30
-166.37
-188.12
-204.29
-211.19
-207.09
-193.04
-172.53
-150.19
-129.99
-113.93
-101.87
-92.47
-84.64
-78.53
-75.53
-77.19
-83.92
-94.06
-104.24
-110.63
-110.69
-104.35
-94.09
-83.80
-76.95
-75.19
-77.67
-81.65
-83.69
-80.86
-71.43
-55.02
-32.42
-5.39
23.42
50.82
73.67
89.89
99.00
102.10
101.03
97.01
89.75
77.57
58.62
32.73
2.79
-25.31
-44.29
-48.16
-34.67
-6.45
29.81
65.57
93.24
108.25
109.71
99.56
81.09
57.49
31.28
4.26
-22.03
-46.16
-66.95
-83.87
-97.32
-108.56
-119.16
-130.28
-141.99
-153.08
-161.36
-164.42
-160.58
-149.58
-132.70
-112.25
-90.62
-69.53
-49.72
-31.18
-13.77
2.22
16.03
26.77
33.90
37.58
38.57
37.85
36.22
34.12
31.62
28.73
25.46
21.98
18.41
14.82
11.19
7.45
3.59
-0.27
-3.96
-7.27
-10.13
-12.54
-14.71
-16.88
-19.28
-22.01
-25.01
-28.07
-31.05
-33.95
-36.86
-39.91
-43.03
-45.83
-47.71
-48.03
-46.36
-42.69
-37.36
-31.01
-24.31
-17.84
-11.95
-6.79
-2.42
1.14
3.81
5.55
6.34
6.34
5.86
5.28
4.91
4.84
4.95
4.96
4.66
4.03
3.23
2.55
2.23
2.30
2.62
2.90
2.88
2.39
1.36
-0.12
-1.95
-3.96
-5.98
-7.84
-9.44
-10.77
-12.02
-13.44
-15.36
-17.97
-21.22
-24.74
-27.94
-30.10
-30.63
-29.21
-25.89
-21.00
-15.14
-8.97
-3.10
1.97
5.97
8.80
10.54
11.38
11.56
11.34
10.95
10.58
10.31
10.13
9.95
9.70
9.29
8.78
8.30
8.00
7.95
8.13
8.35
8.37
7.99
7.10
5.72
4.01
2.20
0.46
-1.14
-2.67
-4.37
-6.58
-9.59
-13.54
-18.23
-23.12
-27.33
-29.92
-30.19
-27.89
-23.40
-17.55
-11.36
-5.65
-0.83
3.11
6.39
9.21
11.56
13.24
14.13
14.22
13.80
13.25
12.89
12.76
12.70
12.43
11.77
10.72
9.52
8.48
7.87
7.73
7.90
8.02
7.67
6.55
4.57
1.93
-1.02
-3.85
-6.28
-8.26
-9.93
-11.65
-13.84
-16.85
-20.86
-25.74
-31.02
-35.91
-39.46
-40.84
-39.62
-35.94
-30.43
-24.04
-17.71
-12.07
-7.31
-3.29
0.31
3.74
6.97
9.79
11.90
13.15
13.67
13.78
13.86
14.11
14.46
14.55
14.04
12.75
10.85
8.75
6.91
5.59
4.77
4.18
3.50
2.48
1.10
-0.44
-1.92
-3.17
-4.19
-5.17
-6.37
-8.10
-10.58
-14.02
-18.53
-24.15
-30.69
-37.58
-43.91
-48.53
-50.45
-49.14
-44.86
-38.47
-31.20
-24.08
-17.70
-12.09
-6.95
-2.02
2.72
6.95
10.23
12.25
13.00
12.82
12.23
11.65
11.29
11.04
10.61
9.81
8.62
7.29
6.15
5.50
5.44
5.97
7.02
8.63
10.91
14.00
17.87
22.30
26.85
30.97
34.14
35.99
36.29
34.97
32.07
27.73
22.12
15.51
8.20
0.57
-6.96
-13.90
-19.72
-24.02
-26.55
-27.37
-26.73
-24.99
-22.43
-19.13
-14.96
-9.79
-3.69
2.85
9.00
13.76
16.34
16.44
14.42
11.17
7.75
4.92
2.86
1.03
-1.56
-5.91
-12.57
-21.30
-31.16
-40.78
-48.86
-54.60
-58.06
-60.11
-62.22
-65.93
-72.17
-80.59
-89.22
-94.72
-93.45
-82.77
-62.26
-34.25
-3.55
23.73
41.70
46.34
36.68
15.18
-12.82
-40.59
-62.01
-73.12
-72.96
-63.21
-46.83
-26.37
-3.01
23.36
53.04
85.28
117.71
146.74
168.92
182.27
187.00
185.18
179.50
172.06
163.77
154.68
144.80
134.73
125.55
118.03
111.84
105.41
96.71
84.39
68.55
50.56
32.23
14.59
-2.80
-21.50
-43.16
-68.20
-94.94
-119.73
-137.74
-144.61
-137.93
-118.19
-88.83
-55.44
-24.07
0.64
17.16
27.66
37.22
51.64
74.87
107.13
144.62
181.07
210.32
228.69
236.00
234.83
228.73
220.44
211.13
200.86
189.46
177.24
164.95
153.28
142.25
131.14
118.95
104.98
89.31
72.93
57.29
43.78
33.14
25.22
19.07
13.37
6.94
-0.81
-9.60
-18.59
-26.65
-32.99
-37.45
-40.67
-43.74
-47.73
-53.19
-59.89
-66.96
-73.24
-77.82
-80.29
-80.88
-80.21
-79.01
-77.77
-76.73
-75.84
-74.97
-73.99
-72.85
-71.59
-70.31
-69.12
-68.13
-67.35
-66.75
-66.15
-65.39
-64.39
-63.20
-62.03
-61.14
-60.69
-60.65
-60.77
-60.72
-60.20
-59.08
-57.46
-55.62
-53.90
-52.61
-52.00
-52.10
-52.83
-53.95
-55.02
-55.47
-54.65
-52.00
-47.20
-40.34
-31.94
-22.82
-13.92
-6.04
0.40
5.34
8.94
11.44
12.98
13.55
13.16
11.92
10.13
8.21
6.50
5.16
4.06
2.88
1.38
-0.57
-2.85
-5.24
-7.56
-9.71
-11.79
-13.94
-16.33
-19.04
-22.07
-25.35
-28.83
-32.49
-36.36
-40.47
-44.77
-49.02
-52.75
-55.27
-55.88
-54.02
-49.52
-42.71
-34.30
-25.27
-16.50
-8.60
-1.81
3.90
8.71
12.72
15.92
18.23
19.60
20.08
19.89
19.20
18.14
16.73
14.94
12.79
10.41
8.00
5.72
3.56
1.37
-1.14
-4.16
-7.80
-12.02
-16.68
-21.66
-26.93
-32.49
-38.48
-45.06
-52.38
-60.45
-68.96
-77.19
-84.09
-88.56
-89.91
-88.14
-83.98
-78.53
-72.88
-67.62
-62.83
-58.27
-53.69
-49.07
-44.61
-40.63
-37.42
-35.15
-33.82
-33.19
-32.65
-31.25
-27.82
-21.31
-11.17
2.37
18.37
35.53
52.58
68.57
82.92
95.21
104.96
111.66
114.82
114.26
110.16
103.09
93.74
82.71
70.38
57.01
42.94
28.75
15.37
3.83
-5.02
-10.71
-13.27
-13.06
-10.45
-5.68
1.15
9.95
20.42
31.96
43.64
54.49
63.66
70.67
75.44
78.20
79.40
79.58
79.19
78.55
77.67
76.38
74.32
71.29
67.41
63.25
59.80
58.15
59.10
62.85
68.98
76.57
84.55
92.02
98.41
103.47
107.14
109.38
110.04
108.95
105.98
101.15
94.74
87.15
78.87
70.22
61.40
52.44
43.43
34.61
26.33
19.00
12.83
7.71
3.28
-0.94
-5.25
-9.65
-13.98
-17.96
-21.51
-24.74
-27.91
-31.31
-35.06
-39.13
-43.31
-47.36
-51.09
-54.38
-57.24
-59.72
-61.89
-63.79
-65.39
-66.62
-67.34
-67.47
-67.04
-66.22
-65.27
-64.42
-63.79
-63.32
-62.83
-62.18
-61.37
-60.51
-59.82
-59.44
-59.34
-59.33
-59.13
-58.46
-57.17
-55.20
-52.59
-49.33
-45.41
-40.87
-35.82
-30.46
-25.08
-19.99
-15.35
-11.23
-7.59
-4.36
-1.53
0.92
2.98
4.73
6.27
7.76
9.24
10.68
11.92
12.85
13.46
13.91
14.44
15.20
16.23
17.39
18.48
19.34
20.03
20.80
21.94
23.71
26.04
28.62
30.88
32.29
32.53
31.66
30.03
28.09
26.15
24.24
22.19
19.76
16.80
13.42
9.79
6.19
2.89
0.09
-2.03
-3.35
-3.93
-3.96
-3.76
-3.70
-4.07
-4.95
-6.32
-8.08
-10.12
-12.36
-14.70
-16.91
-18.79
-20.15
-20.98
-21.44
-21.84
-22.49
-23.66
-25.36
-27.47
-29.75
-31.93
-33.83
-35.38
-36.64
-37.73
-38.79
-39.89
-41.06
-42.21
-43.18
-43.71
-43.46
-42.11
-39.39
-35.27
-29.83
-23.35
-16.16
-8.56
-0.80
6.93
14.46
21.51
27.67
32.54
35.75
37.20
37.12
35.98
34.35
32.69
31.19
29.73
28.07
26.00
23.47
20.60
17.65
14.82
12.20
9.80
7.62
5.64
3.91
2.43
1.12
-0.17
-1.57
-3.09
-4.61
-5.94
-6.92
-7.64
-8.33
-9.37
-11.00
-13.18
-15.62
-17.80
-19.32
-19.95
-19.71
-18.79
-17.39
-15.62
-13.51
-11.08
-8.43
-5.82
-3.52
-1.79
-0.69
-0.11
0.16
0.39
0.69
1.08
1.46
1.81
2.17
2.73
3.73
5.31
7.41
9.76
11.99
13.74
14.79
15.16
14.99
14.49
13.84
13.14
12.47
11.89
11.42
11.02
10.50
9.55
7.80
4.92
0.76
-4.56
-10.73
-17.27
-23.65
-29.34
-33.95
-37.16
-38.73
-38.55
-36.62
-33.15
-28.58
-23.44
-18.30
-13.59
-9.50
-6.06
-3.15
-0.70
1.34
2.93
4.05
4.71
5.00
5.06
5.06
5.18
5.56
6.28
7.30
8.48
9.65
10.60
11.17
11.33
11.13
10.68
10.13
9.53
8.89
8.10
7.01
5.53
3.71
1.75
-0.10
-1.68
-2.95
-4.05
-5.21
-6.60
-8.36
-10.51
-13.06
-16.02
-19.28
-22.56
-25.34
-26.98
-26.93
-24.99
-21.39
-16.72
-11.68
-6.81
-2.37
1.66
5.41
8.95
12.20
14.96
17.01
18.18
18.47
17.99
16.96
15.62
14.16
12.69
11.20
9.64
7.94
6.12
4.24
2.38
0.60
-1.18
-3.04
-5.18
-7.70
-10.64
-13.97
-17.61
-21.54
-25.77
-30.34
-35.31
-40.62
-46.16
-51.72
-57.17
-62.43
-67.55
-72.74
-78.30
-84.55
-91.71
-99.74
-108.33
-116.82
-124.48
-130.68
-135.18
-138.19
-140.38
-142.57
-145.51
-149.65
-155.07
-161.55
-168.68
-176.01
-183.19
-190.10
-196.80
-203.54
-210.56
-217.80
-224.61
-229.58
-230.62
-225.38
-212.06
-190.11
-160.64
-126.33
-90.55
-56.38
-25.79
0.61
23.15
42.39
58.64
71.79
81.62
88.16
92.07
94.50
96.72
99.71
103.72
108.28
112.33
114.70
114.36
110.80
104.06
94.77
84.09
73.61
65.14
60.47
60.91
66.96
78.14
93.13
110.25
127.90
145.00
160.92
175.31
187.90
198.39
206.60
212.66
217.25
221.53
226.89
234.47
244.50
256.05
267.13
275.24
278.26
275.11
265.93
251.77
233.93
213.44
190.88
166.64
141.20
115.28
89.74
65.30
42.34
20.89
0.81
-17.92
-35.02
-49.81
-61.38
-68.91
-71.90
-70.46
-65.36
-57.78
-48.93
-39.73
-30.61
-21.63
-12.70
-3.89
4.51
12.00
18.12
22.60
25.37
26.55
26.33
24.93
22.57
19.48
16.02
12.61
9.65
7.42
5.97
5.08
4.40
3.49
2.04
-0.12
-3.01
-6.54
-10.65
-15.19
-20.07
-25.17
-30.39
-35.71
-41.15
-46.71
-52.37
-57.96
-63.25
-67.96
-71.79
-74.47
-75.81
-75.65
-73.85
-70.22
-64.59
-56.78
-46.79
-34.85
-21.53
-7.64
5.88
18.21
28.82
37.51
44.39
49.72
53.84
57.06
59.66
61.85
63.65
64.90
65.21
64.28
62.00
58.84
55.73
53.97
54.80
59.01
66.71
77.36
89.95
103.27
116.10
127.37
136.13
141.68
143.54
141.55
135.92
127.17
116.07
103.53
90.41
77.43
65.13
53.85
43.71
34.67
26.56
19.18
12.41
6.30
1.14
-2.53
-4.17
-3.42
-0.28
4.86
11.28
18.14
24.68
30.33
34.63
37.25
37.91
36.53
33.32
28.79
23.73
18.90
14.82
11.60
9.04
6.88
5.04
3.74
3.35
4.03
5.38
6.45
5.86
2.31
-4.95
-15.97
-30.08
-46.16
-62.83
-78.70
-92.52
-103.32
-110.54
-114.18
-114.72
-112.82
-108.96
-103.12
-94.90
-83.89
-70.19
-54.71
-39.02
-24.87
-13.54
-5.54
-0.58
1.94
2.61
1.75
-0.57
-4.20
-8.78
-13.68
-18.25
-22.11
-25.34
-28.41
-31.90
-36.18
-41.16
-46.31
-50.93
-54.52
-56.91
-58.27
-58.96
-59.20
-58.97
-58.07
-56.37
-53.92
-51.06
-48.26
-45.91
-44.20
-43.04
-42.13
-41.26
-40.35
-39.61
-39.42
-40.16
-42.02
-44.84
-48.15
-51.31
-53.65
-54.69
-54.11
-51.79
-47.80
-42.32
-35.71
-28.46
-21.15
-14.36
-8.53
-3.97
-0.76
1.19
2.16
2.49
2.49
2.44
2.42
2.47
2.55
2.67
2.83
3.09
3.53
4.18
4.99
5.91
6.77
7.46
7.87
7.94
7.62
6.92
5.85
4.38
2.49
0.14
-2.61
-5.61
-8.64
-11.46
-13.84
-15.60
-16.66
-17.04
-16.81
-16.06
-14.89
-13.39
-11.67
-9.83
-7.98
-6.21
-4.58
-3.09
-1.75
-0.64
0.14
0.48
0.28
-0.41
-1.41
-2.45
-3.32
-3.98
-4.51
-5.06
-5.71
-6.42
-7.07
-7.59
-8.02
-8.49
-9.17
-10.12
-11.25
-12.41
-13.41
-14.13
-14.60
-14.99
-15.45
-16.12
-17.02
-18.05
-19.04
-19.75
-19.93
-19.41
-18.15
-16.29
-14.06
-11.69
-9.37
-7.22
-5.31
-3.70
-2.47
-1.71
-1.42
-1.52
-1.84
-2.18
-2.38
-2.38
-2.23
-2.02
-1.85
-1.81
-1.90
-2.08
-2.25
-2.32
-2.24
-2.05
-1.87
-1.82
-1.99
-2.39
-2.96
-3.62
-4.29
-4.93
-5.50
-6.00
-6.38
-6.70
-7.04
-7.59
-8.49
-9.81
-11.38
-12.90
-14.02
-14.45
-14.09
-13.04
-11.50
-9.70
-7.88
-6.21
-4.85
-3.93
-3.49
-3.44
-3.55
-3.59
-3.36
-2.90
-2.35
-1.98
-1.94
-2.28
-2.86
-3.52
-4.15
-4.69
-5.20
-5.70
-6.18
-6.59
-6.84
-6.95
-6.98
-7.09
-7.47
-8.23
-9.41
-10.95
-12.69
-14.48
-16.26
-17.94
-19.54
-21.06
-22.51
-23.86
-25.16
-26.42
-27.69
-28.97
-30.14
-30.93
-30.94
-29.77
-27.11
-22.91
-17.50
-11.41
-5.27
0.33
5.00
8.55
10.96
12.28
12.64
12.26
11.36
10.23
9.19
8.49
8.29
8.63
9.47
10.68
12.12
13.64
15.10
16.37
17.35
17.97
18.15
17.87
17.18
16.17
14.98
13.82
12.80
11.94
11.07
9.91
8.19
5.77
2.74
-0.60
-3.85
-6.66
-8.84
-10.38
-11.38
-11.96
-12.23
-12.23
-12.01
-11.64
-11.19
-10.75
-10.38
-10.12
-9.88
-9.59
-9.21
-8.91
-9.01
-9.86
-11.62
-14.10
-16.82
-19.15
-20.61
-21.03
-20.57
-19.45
-17.96
-16.35
-15.06
-14.77
-16.22
-19.97
-25.87
-32.98
-39.70
-44.26
-45.31
-42.27
-35.40
-25.55
-13.83
-1.37
10.84
21.98
31.48
39.12
45.06
49.81
53.96
57.92
61.72
64.94
66.98
67.27
65.57
62.02
57.10
51.41
45.56
39.97
34.90
30.26
25.57
20.07
12.97
3.91
-6.61
-17.23
-26.07
-31.36
-32.15
-28.53
-21.49
-12.48
-2.78
6.66
15.29
22.79
28.88
33.35
36.12
37.29
37.17
36.09
34.38
32.21
29.64
26.62
23.15
19.26
15.11
10.85
6.63
2.45
-1.83
-6.40
-11.30
-16.38
-21.21
-25.21
-27.82
-28.69
-27.87
-25.73
-22.84
-19.78
-16.91
-14.29
-11.78
-9.19
-6.44
-3.67
-1.17
0.87
2.40
3.66
4.95
6.52
8.41
10.42
12.26
13.75
14.86
15.67
16.30
16.77
17.04
17.03
16.74
16.19
15.50
14.76
14.02
13.31
12.60
11.90
11.19
10.44
9.64
8.73
7.63
6.25
4.50
2.41
0.20
-1.74
-2.90
-2.85
-1.45
1.08
4.24
7.43
10.22
12.47
14.32
16.00
17.73
19.53
21.25
22.61
23.36
23.40
22.82
21.87
20.84
19.92
19.15
18.46
17.66
16.71
15.55
14.32
13.14
12.08
11.16
10.29
9.37
8.29
7.05
5.67
4.27
2.94
1.75
0.66
-0.45
-1.75
-3.42
-5.50
-7.98
-10.68
-13.36
-15.70
-17.39
-18.23
-18.15
-17.22
-15.66
-13.75
-11.75
-9.85
-8.16
-6.70
-5.46
-4.42
-3.51
-2.72
-2.10
-1.81
-2.09
-3.08
-4.80
-6.92
-8.92
-10.27
-10.63
-10.00
-8.71
-7.23
-5.99
-5.12
-4.55
-4.07
-3.54
-2.96
-2.45
-2.18
-2.19
-2.40
-2.63
-2.75
-2.76
-2.80
-3.01
-3.47
-4.19
-5.14
-6.36
-7.98
-10.15
-12.94
-16.12
-19.20
-21.60
-22.86
-22.78
-21.47
-19.28
-16.59
-13.66
-10.67
-7.70
-4.74
-1.78
1.22
4.27
7.42
10.59
13.60
16.12
17.85
18.55
18.16
16.79
14.65
11.95
8.87
5.58
2.19
-1.15
-4.34
-7.35
-10.21
-13.05
-15.95
-18.89
-21.75
-24.32
-26.46
-28.12
-29.44
-30.59
-31.64
-32.55
-33.09
-33.02
-32.23
-30.84
-29.15
-27.53
-26.17
-25.04
-23.85
-22.23
-19.95
-17.04
-13.76
-10.44
-7.38
-4.69
-2.32
-0.15
1.84
3.64
5.09
6.09
6.61
6.81
6.90
7.11
7.54
8.14
8.81
9.40
9.86
10.19
10.49
10.85
11.28
11.76
12.16
12.40
12.40
12.18
11.77
11.21
10.48
9.53
8.28
6.74
5.02
3.25
1.53
-0.20
-2.14
-4.58
-7.73
-11.63
-16.03
-20.47
-24.40
-27.33
-28.95
-29.24
-28.40
-26.86
-25.16
-23.77
-22.96
-22.71
-22.68
-22.35
-21.20
-18.93
-15.53
-11.35
-6.94
-2.86
0.44
2.86
4.48
5.50
6.10
6.38
6.40
6.28
6.28
6.76
8.10
10.45
13.67
17.35
20.90
23.80
25.79
26.89
27.38
27.63
27.99
28.64
29.56
30.57
31.36
31.59
31.00
29.54
27.36
24.82
22.47
20.78
20.11
20.52
21.76
23.34
24.68
25.33
25.15
24.31
23.22
22.38
22.20
22.88
24.41
26.61
29.27
32.18
35.17
38.04
40.55
42.49
43.65
43.97
43.49
42.37
40.77
38.81
36.47
33.69
30.39
26.56
22.30
17.78
13.16
8.56
4.00
-0.58
-5.23
-9.99
-14.85
-19.73
-24.58
-29.39
-34.16
-38.81
-43.13
-46.75
-49.22
-50.16
-49.38
-46.99
-43.36
-38.99
-34.35
-29.78
-25.47
-21.40
-17.48
-13.61
-9.77
-6.05
-2.69
0.10
2.09
3.27
3.79
3.95
4.00
4.11
4.29
4.48
4.63
4.78
5.02
5.43
5.92
6.26
6.18
5.49
4.16
2.31
0.16
-2.20
-4.77
-7.68
-11.06
-14.94
-19.19
-23.59
-27.93
-32.09
-36.09
-39.91
-43.48
-46.53
-48.63
-49.45
-48.85
-47.01
-44.38
-41.51
-38.78
-36.24
-33.66
-30.63
-26.82
-22.24
-17.17
-12.12
-7.55
-3.75
-0.76
1.55
3.36
4.74
5.66
6.05
5.87
5.16
4.04
2.70
1.28
-0.15
-1.59
-3.07
-4.61
-6.13
-7.35
-7.88
-7.30
-5.37
-2.11
2.18
7.00
11.85
16.27
19.91
22.39
23.34
22.44
19.65
15.28
10.11
5.20
1.60
0.05
0.77
3.45
7.36
11.65
15.56
18.56
20.48
21.39
21.50
21.00
19.99
18.53
16.65
14.53
12.51
11.07
10.62
11.44
13.46
16.30
19.50
22.64
25.52
28.11
30.37
32.18
33.31
33.49
32.68
31.02
28.87
26.51
23.98
21.11
17.66
13.63
9.33
5.33
2.10
-0.23
-2.00
-3.80
-6.11
-9.05
-12.30
-15.31
-17.57
-18.87
-19.25
-18.94
-18.08
-16.65
-14.56
-11.78
-8.45
-4.95
-1.76
0.67
2.02
2.19
1.22
-0.73
-3.41
-6.50
-9.58
-12.19
-13.79
-13.91
-12.19
-8.26
-1.91
6.91
17.96
30.71
44.35
57.93
70.47
81.08
89.04
93.73
94.77
92.15
86.30
78.12
68.84
59.76
52.04
46.48
43.38
42.52
43.27
44.64
45.61
45.40
43.70
40.73
37.01
33.09
29.28
25.57
21.85
18.00
14.13
10.46
7.19
4.36
1.87
-0.48
-2.77
-5.02
-7.19
-9.29
-11.40
-13.69
-16.19
-18.77
-21.14
-22.99
-24.12
-24.57
-24.55
-24.43
-24.53
-25.09
-26.25
-28.06
-30.39
-33.04
-35.60
-37.59
-38.55
-38.25
-36.72
-34.33
-31.68
-29.39
-27.95
-27.59
-28.27
-29.73
-31.68
-33.83
-35.95
-37.85
-39.36
-40.35
-40.66
-40.21
-39.02
-37.27
-35.20
-33.08
-31.12
-29.38
-27.83
-26.40
-25.11
-24.05
-23.39
-23.27
-23.75
-24.77
-26.26
-28.20
-30.67
-33.77
-37.54
-41.84
-46.34
-50.55
-54.12
-56.86
-58.86
-60.45
-62.00
-63.83
-66.14
-69.08
-72.74
-77.26
-82.79
-89.42
-97.09
-105.56
-114.44
-123.31
-131.79
-139.52
-146.22
-151.63
-155.53
-157.73
-158.19
-156.95
-154.24
-150.37
-145.79
-140.91
-136.05
-131.35
-126.80
-122.21
-117.44
-112.48
-107.53
-102.84
-98.52
-94.38
-89.81
-84.01
-76.22
-66.01
-53.48
-39.30
-24.52
-10.33
2.20
12.32
19.82
25.04
28.67
31.56
34.37
37.45
40.78
44.08
47.06
49.47
51.23
52.34
52.87
52.89
52.46
51.65
50.55
49.39
48.46
48.05
48.30
49.04
49.86
50.21
49.64
47.89
44.89
40.63
35.06
28.17
20.15
11.56
3.38
-3.22
-7.21
-8.01
-5.54
-0.21
7.44
16.76
27.14
37.96
48.54
58.26
66.55
73.03
77.60
80.41
81.85
82.40
82.50
82.45
82.30
81.90
80.96
79.26
76.71
73.38
69.42
64.93
59.93
54.40
48.34
41.82
35.01
28.03
20.83
13.14
4.55
-5.24
-16.26
-28.08
-39.80
-50.18
-57.91
-61.80
-61.07
-55.59
-45.93
-33.30
-19.22
-5.05
8.25
20.18
30.56
39.20
45.88
50.33
52.46
52.50
50.87
47.94
43.87
38.66
32.38
25.46
18.74
13.19
9.55
8.05
8.42
10.10
12.53
15.22
17.69
19.33
19.33
16.88
11.42
2.87
-8.21
-20.77
-33.38
-44.48
-52.57
-56.46
-55.49
-49.71
-39.96
-27.75
-14.99
-3.67
4.60
8.82
8.88
5.57
0.38
-4.87
-8.49
-9.38
-7.10
-1.87
5.74
15.10
25.80
37.68
50.62
64.39
78.29
91.21
101.84
109.12
112.75
113.37
112.44
111.51
111.62
112.65
113.45
112.31
107.84
99.60
88.21
74.97
61.36
48.46
36.95
27.25
19.80
15.13
13.73
15.71
20.65
27.62
35.50
43.35
50.66
57.35
63.55
69.39
74.80
79.55
83.30
85.78
86.82
86.45
84.93
82.63
80.01
77.50
75.39
73.78
72.49
71.16
69.25
66.28
61.95
56.30
49.67
42.62
35.71
29.33
23.52
17.99
12.16
5.37
-3.00
-13.31
-25.41
-38.60
-51.65
-63.01
-71.24
-75.37
-75.11
-70.83
-63.29
-53.37
-41.82
-29.24
-16.10
-2.88
10.01
22.18
33.37
43.41
52.22
59.71
65.80
70.41
73.58
75.41
76.22
76.36
76.24
76.12
76.16
76.29
76.26
75.70
74.21
71.50
67.42
62.06
55.68
48.65
41.30
33.94
26.77
19.92
13.44
7.32
1.45
-4.43
-10.62
-17.39
-24.84
-32.72
-40.48
-47.25
-52.11
-54.24
-53.19
-48.93
-41.89
-32.87
-22.84
-12.74
-3.32
4.99
12.14
18.38
24.12
29.76
35.52
41.37
47.06
52.16
56.15
58.59
59.19
57.87
54.78
50.26
44.79
38.90
33.07
27.67
22.85
18.59
14.66
10.74
6.51
1.75
-3.55
-9.31
-15.38
-21.72
-28.46
-35.78
-43.82
-52.56
-61.68
-70.61
-78.65
-85.01
-88.97
-89.98
-87.74
-82.32
-74.20
-64.14
-53.05
-41.78
-31.02
-21.18
-12.52
-5.22
0.60
4.81
7.43
8.62
8.73
8.20
7.48
6.90
6.62
6.69
7.03
7.53
8.05
8.40
8.34
7.62
5.99
3.31
-0.40
-4.93
-9.97
-15.16
-20.26
-25.20
-30.15
-35.44
-41.46
-48.37
-56.03
-63.79
-70.65
-75.46
-77.31
-75.72
-70.76
-62.92
-52.88
-41.32
-28.88
-16.14
-3.71
7.78
17.84
26.16
32.72
37.63
41.07
43.18
44.10
44.00
43.13
41.82
40.31
38.74
37.06
35.11
32.75
29.87
26.48
22.64
18.41
13.84
9.01
3.94
-1.39
-7.12
-13.41
-20.42
-28.12
-36.20
-44.02
-50.67
-55.19
-56.87
-55.39
-50.87
-43.86
-35.10
-25.39
-15.42
-5.76
3.15
11.01
17.61
22.90
26.95
29.90
31.89
33.07
33.55
33.47
32.97
32.27
31.54
30.90
30.27
29.46
28.20
26.22
23.41
19.80
15.62
11.11
6.46
1.76
-3.06
-8.09
-13.44
-19.19
-25.38
-32.02
-39.04
-46.10
-52.57
-57.56
-60.11
-59.49
-55.50
-48.58
-39.57
-29.51
-19.25
-9.35
-0.06
8.52
16.23
22.90
28.24
32.11
34.53
35.75
36.12
36.00
35.58
34.92
33.95
32.65
31.09
29.42
27.85
26.46
25.17
23.75
21.84
19.17
15.61
11.27
6.43
1.44
-3.40
-7.99
-12.41
-16.94
-21.97
-27.85
-34.78
-42.61
-50.87
-58.70
-65.12
-69.23
-70.48
-68.80
-64.51
-58.16
-50.37
-41.72
-32.71
-23.84
-15.58
-8.32
-2.27
2.60
6.53
9.74
12.34
14.29
15.46
15.81
15.51
14.89
14.30
13.98
13.88
13.79
13.40
12.48
10.96
8.96
6.66
4.24
1.74
-0.93
-3.98
-7.74
-12.42
-18.15
-24.79
-31.99
-39.18
-45.69
-50.82
-53.86
-54.27
-51.79
-46.52
-38.94
-29.88
-20.26
-10.83
-2.10
5.77
12.83
19.10
24.53
28.94
32.09
33.88
34.40
33.96
32.95
31.74
30.52
29.33
28.14
26.91
25.71
24.61
23.66
22.73
21.56
19.78
17.14
13.55
9.16
4.28
-0.74
-5.64
-10.31
-14.82
-19.39
-24.35
-29.99
-36.47
-43.65
-51.10
-58.03
-63.56
-66.81
-67.24
-64.63
-59.22
-51.56
-42.38
-32.46
-22.46
-12.90
-4.07
3.93
11.09
17.46
23.06
27.81
31.63
34.45
36.29
37.28
37.64
37.64
37.51
37.43
37.46
37.63
37.85
37.95
37.70
36.90
35.39
33.12
30.15
26.58
22.52
18.06
13.23
8.08
2.70
-2.82
-8.37
-13.91
-19.46
-25.12
-31.05
-37.42
-44.33
-51.69
-59.15
-66.09
-71.68
-75.06
-75.58
-72.95
-67.41
-59.55
-50.19
-40.13
-30.00
-20.17
-10.84
-2.08
6.01
13.30
19.62
24.82
28.82
31.67
33.46
34.36
34.57
34.29
33.76
33.20
32.74
32.42
32.17
31.82
31.21
30.21
28.72
26.72
24.19
21.18
17.77
14.06
10.20
6.29
2.38
-1.59
-5.68
-9.99
-14.60
-19.62
-25.16
-31.30
-38.06
-45.27
-52.48
-59.00
-64.02
-66.75
-66.69
-63.66
-57.92
-50.02
-40.73
-30.80
-20.90
-11.51
-2.97
4.52
10.84
15.93
19.79
22.52
24.26
25.28
25.79
26.02
26.02
25.76
25.16
24.21
23.03
21.85
20.89
20.15
19.44
18.35
16.47
13.63
9.97
5.90
1.90
-1.76
-5.17
-8.69
-12.82
-17.89
-23.97
-30.80
-37.87
-44.56
-50.24
-54.40
-56.65
-56.75
-54.64
-50.33
-43.93
-35.53
-25.32
-13.56
-0.76
12.30
24.57
34.91
42.37
46.48
47.48
46.35
44.56
43.53
44.06
45.93
48.01
48.77
47.02
42.39
35.43
27.12
18.22
8.80
-1.98
-15.54
-33.44
-56.80
-85.92
-119.96
-156.88
-193.86
-227.94
-257.05
-280.68
-300.03
-317.29
-334.63
-353.07
-371.95
-389.18
-401.94
-407.62
-404.50
-392.01
-370.76
-342.31
-308.77
-272.56
-235.99
-200.90
-168.44
-138.96
-112.01
-86.56
-61.33
-35.25
-7.86
20.30
47.80
72.61
92.82
107.29
116.15
120.85
123.65
126.93
132.39
140.56
150.81
161.81
172.14
180.67
186.80
190.24
190.78
188.14
182.08
172.67
160.51
146.74
132.67
119.39
107.35
96.28
85.32
73.46
59.92
44.49
27.86
11.58
-2.14
-10.90
-12.86
-7.26
5.38
23.46
44.90
67.79
90.74
112.90
133.69
152.45
168.37
180.64
188.67
192.37
192.25
189.21
184.25
178.22
171.61
164.56
157.08
149.17
141.11
133.36
126.36
120.28
114.75
108.92
101.77
92.53
81.05
67.94
54.25
41.17
29.47
19.27
10.06
0.89
-9.23
-21.12
-35.11
-50.92
-67.51
-83.08
-95.30
-101.79
-100.84
-91.98
-76.16
-55.47
-32.44
-9.37
12.16
31.25
47.45
60.38
69.59
74.71
75.76
73.35
68.66
63.12
57.95
53.81
50.64
47.97
45.23
42.17
38.91
35.76
32.93
30.27
27.36
23.67
18.91
13.10
6.58
-0.20
-6.81
-12.93
-18.46
-23.51
-28.51
-34.20
-41.56
-51.37
-63.86
-78.17
-92.29
-103.35
-108.43
-105.54
-94.32
-76.22
-53.90
-30.31
-7.72
12.76
31.08
47.66
62.75
76.07
86.90
94.48
98.40
98.83
96.42
92.07
86.59
80.53
74.17
67.69
61.25
55.16
49.77
45.35
41.87
39.03
36.24
32.91
28.60
23.12
16.57
9.14
1.09
-7.32
-15.80
-23.99
-31.62
-38.53
-44.89
-51.25
-58.41
-67.27
-78.38
-91.55
-105.60
-118.33
-127.02
-129.14
-123.20
-109.24
-88.83
-64.48
-38.85
-14.04
8.76
29.06
46.76
61.76
73.87
82.90
88.77
91.67
91.98
90.21
86.87
82.44
77.31
71.87
66.50
61.53
57.22
53.67
50.74
48.05
45.16
41.75
37.72
33.23
28.56
23.90
19.18
14.12
8.39
1.83
-5.46
-13.10
-20.61
-27.66
-34.18
-40.44
-46.92
-54.29
-63.16
-73.86
-86.13
-98.84
-109.95
-116.86
-117.19
-109.54
-94.12
-72.74
-48.18
-23.33
-0.36
19.67
36.54
50.43
61.43
69.44
74.27
75.99
75.08
72.36
68.70
64.73
60.73
56.66
52.42
48.05
43.80
40.04
37.07
34.89
33.10
31.04
27.94
23.21
16.68
8.64
-0.24
-9.16
-17.48
-24.89
-31.56
-38.05
-45.14
-53.65
-64.14
-76.62
-90.18
-102.93
-112.29
-115.66
-111.28
-98.93
-79.99
-56.99
-32.73
-9.46
11.49
29.67
45.03
57.56
67.10
73.42
76.47
76.52
74.18
70.26
65.63
61.01
56.88
53.41
50.46
47.78
45.10
42.35
39.71
37.51
36.06
35.32
34.86
33.88
31.50
27.14
20.73
12.83
4.29
-4.06
-11.80
-19.00
-26.12
-33.81
-42.59
-52.86
-64.81
-78.28
-92.62
-106.39
-117.46
-123.39
-122.24
-113.29
-97.41
-76.77
-54.10
-31.84
-11.52
6.22
21.37
34.11
44.51
52.51
58.08
61.28
62.34
61.57
59.30
55.94
51.90
47.63
43.52
39.81
36.50
33.43
30.38
27.15
23.66
19.93
15.99
11.78
7.11
1.71
-4.64
-11.89
-19.75
-27.73
-35.28
-42.04
-47.97
-53.36
-58.71
-64.62
-71.67
-80.32
-90.87
-103.11
-116.10
-127.95
-136.07
-137.91
-131.80
-117.71
-97.31
-73.44
-49.04
-26.36
-6.47
10.51
24.93
37.01
46.77
54.02
58.65
60.80
60.84
59.25
56.49
52.97
49.01
45.01
41.36
38.47
36.57
35.63
35.32
35.08
34.33
32.61
29.76
25.91
21.32
16.25
10.82
5.00
-1.32
-8.22
-15.64
-23.37
-31.13
-38.64
-45.74
-52.45
-59.03
-65.99
-74.02
-83.70
-95.07
-107.24
-118.22
-125.35
-126.06
-118.88
-104.08
-83.56
-60.21
-36.77
-15.11
4.09
20.94
35.71
48.40
58.61
65.83
69.81
70.78
69.40
66.53
62.94
59.18
55.52
52.01
48.64
45.41
42.30
39.39
36.70
34.23
31.86
29.32
26.17
21.99
16.50
9.71
1.98
-6.09
-13.94
-21.20
-27.87
-34.20
-40.57
-47.35
-54.89
-63.50
-73.48
-84.73
-96.49
-107.07
-114.05
-115.03
-108.55
-94.72
-75.31
-53.12
-30.98
-10.87
6.33
20.59
32.20
41.23
47.54
50.97
51.63
50.08
47.16
43.68
40.15
36.75
33.41
30.11
27.01
24.48
22.87
22.24
22.19
21.91
20.47
17.18
11.90
5.08
-2.38
-9.64
-16.14
-21.93
-27.60
-34.06
-42.21
-52.58
-64.92
-78.00
-89.67
-97.31
-98.53
-92.03
-78.03
-58.34
-35.74
-13.03
7.69
25.42
40.11
52.13
61.80
69.15
74.04
76.36
76.24
74.13
70.52
65.93
60.68
54.95
48.98
43.10
37.72
33.21
29.63
26.65
23.60
19.67
14.27
7.24
-1.07
-9.94
-18.57
-26.35
-33.15
-39.37
-45.90
-53.87
-64.20
-77.07
-91.48
-105.19
-115.25
-118.85
-114.38
-101.95
-83.40
-61.49
-38.95
-17.71
1.40
18.36
33.45
46.78
58.21
67.43
74.21
78.58
80.84
81.47
80.95
79.67
77.76
75.17
71.75
67.46
62.47
57.22
52.27
47.97
44.26
40.58
36.06
29.91
21.77
11.92
1.12
-9.69
-19.78
-28.88
-37.23
-45.39
-54.07
-63.94
-75.53
-89.00
-103.84
-118.65
-131.15
-138.64
-138.79
-130.50
-114.33
-92.40
-67.50
-42.29
-18.55
2.92
21.99
38.78
53.30
65.41
74.94
81.88
86.43
88.87
89.48
88.48
86.00
82.27
77.62
72.62
67.92
64.13
61.53
59.97
58.93
57.63
55.36
51.75
46.86
41.05
34.79
28.37
21.76
14.67
6.73
-2.27
-12.15
-22.43
-32.39
-41.41
-49.19
-55.91
-62.22
-69.04
-77.34
-87.73
-100.05
-113.13
-124.75
-132.15
-132.77
-125.16
-109.54
-87.68
-62.38
-36.40
-11.83
10.31
29.79
46.68
61.01
72.60
81.22
86.82
89.68
90.34
89.46
87.60
85.17
82.33
79.14
75.68
72.11
68.72
65.87
63.81
62.52
61.68
60.62
58.64
55.23
50.28
44.11
37.40
30.88
25.01
19.86
15.02
9.85
3.75
-3.53
-11.78
-20.40
-28.64
-35.90
-41.90
-46.83
-51.26
-56.01
-61.93
-69.77
-79.81
-91.58
-103.62
-113.60
-118.81
-116.97
-107.11
-89.89
-67.43
-42.53
-17.77
5.17
25.63
43.64
59.40
72.92
83.93
92.14
97.42
99.97
100.28
98.91
96.38
93.01
89.00
84.50
79.69
74.88
70.40
66.51
63.25
60.38
57.45
53.92
49.36
43.55
36.58
28.75
20.51
12.30
4.51
-2.65
-9.18
-15.29
-21.33
-27.65
-34.45
-41.64
-48.89
-55.74
-61.88
-67.22
-72.07
-77.06
-82.93
-90.42
-99.91
-111.20
-123.25
-134.11
-141.31
-142.45
-136.03
-122.05
-102.12
-78.86
-55.09
-32.99
-13.56
3.11
17.46
29.84
40.24
48.33
53.77
56.50
56.91
55.76
53.93
52.16
50.86
50.14
49.86
49.80
49.81
49.84
49.87
49.88
49.72
49.16
47.88
45.60
42.11
37.40
31.73
25.59
19.56
13.99
8.82
3.44
-3.06
-11.53
-22.46
-35.80
-50.89
-66.56
-81.21
-92.85
-99.35
-98.89
-90.56
-74.78
-53.35
-28.96
-4.40
18.23
37.86
54.28
67.70
78.32
86.20
91.40
94.17
95.02
94.64
93.59
92.17
90.31
87.80
84.51
80.53
76.22
71.99
68.07
64.36
60.45
55.84
50.17
43.46
36.10
28.74
22.04
16.38
11.68
7.34
2.42
-4.22
-13.51
-25.73
-40.23
-55.24
-68.18
-76.36
-77.80
-71.96
-59.91
-44.07
-27.33
-12.21
-0.26
8.11
13.28
16.00
16.99
16.72
15.54
13.71
11.55
9.50
8.03
7.55
8.30
10.21
13.00
16.28
19.78
23.41
27.29
31.40
35.38
38.42
39.40
37.26
31.49
22.34
10.85
-1.53
-13.34
-23.67
-32.28
-39.67
-46.69
-54.26
-62.93
-72.73
-83.07
-92.98
-101.31
-107.00
-109.32
-107.97
-103.11
-95.25
-85.14
-73.61
-61.43
-49.25
-37.54
-26.66
-16.80
-8.02
-0.25
6.63
12.70
17.96
22.22
25.24
26.73
26.47
24.39
20.63
15.55
9.71
3.69
-2.16
-7.90
-14.08
-21.52
-30.99
-42.81
-56.60
-71.51
-86.51
-100.93
-114.69
-128.29
-142.57
-158.33
-176.08
-195.73
-216.43
-236.38
-253.03
-263.44
-265.16
-257.03
-239.70
-215.48
-187.54
-158.95
-131.86
-107.33
-85.65
-66.93
-51.51
-39.84
-32.17
-28.17
-26.88
-27.07
-27.72
-28.30
-28.82
-29.51
-30.45
-31.30
-31.42
-30.15
-27.20
-22.87
-17.98
-13.55
-10.42
-8.92
-8.82
-9.48
-10.17
-10.41
-10.10
-9.67
-9.94
-11.84
-15.97
-22.24
-29.48
-35.52
-37.52
-32.75
-19.48
2.35
31.11
63.95
97.65
129.50
157.76
181.68
201.19
216.39
227.36
233.97
236.13
233.94
227.78
218.36
206.54
193.14
178.79
163.77
148.11
131.75
114.77
97.52
80.61
64.76
50.65
38.79
29.50
22.88
18.78
16.82
16.48
17.39
19.61
23.75
30.62
40.61
52.86
65.05
73.71
75.29
67.14
48.18
19.03
-18.17
-59.91
-101.48
-137.37
-162.31
-172.59
-167.38
-148.92
-121.62
-90.17
-57.81
-25.72
6.50
39.43
72.87
105.74
136.86
165.90
193.64
221.32
249.48
277.18
302.00
320.81
330.96
331.07
321.27
302.65
276.62
244.27
206.16
162.45
113.40
59.80
3.40
-53.15
-106.77
-154.61
-194.86
-227.15
-252.44
-272.52
-289.13
-303.55
-316.21
-326.99
-335.52
-341.60
-345.43
-347.43
-348.16
-348.12
-347.70
-347.19
-346.69
-345.85
-343.69
-338.49
-328.01
-310.25
-284.26
-250.75
-212.04
-171.32
-131.53
-94.59
-61.19
-31.23
-4.48
19.05
39.10
55.53
68.67
79.33
88.47
96.82
104.52
111.22
116.43
119.92
122.00
123.44
125.12
127.58
130.70
133.74
135.63
135.45
132.85
128.20
122.45
116.71
111.80
107.91
104.58
100.92
96.04
89.40
81.14
71.92
62.69
54.24
46.86
40.20
33.39
25.39
15.52
3.83
-8.59
-19.82
-27.49
-29.53
-24.75
-13.25
3.71
24.10
45.75
66.75
85.79
102.08
115.25
125.20
132.05
136.13
137.88
137.83
136.40
133.92
130.59
126.56
122.04
117.27
112.57
108.26
104.58
101.58
99.12
96.78
94.05
90.41
85.59
79.56
72.60
65.17
57.65
50.27
42.99
35.54
27.62
19.00
9.74
0.16
-9.24
-17.93
-25.58
-32.23
-38.31
-44.64
-52.15
-61.56
-72.91
-85.26
-96.62
-104.36
-106.06
-100.29
-87.23
-68.56
-46.90
-24.81
-4.13
14.31
30.43
44.40
56.28
65.91
73.10
77.86
80.55
81.69
81.77
81.05
79.55
77.19
74.01
70.29
66.55
63.36
61.10
59.78
58.99
58.07
56.27
53.07
48.32
42.25
35.43
28.50
21.97
16.04
10.52
4.95
-1.16
-8.05
-15.66
-23.54
-31.12
-37.93
-43.86
-49.21
-54.56
-60.51
-67.62
-76.16
-86.14
-97.06
-107.92
-117.27
-123.51
-125.32
-122.11
-114.16
-102.36
-87.79
-71.28
-53.31
-34.17
-14.43
4.85
22.14
35.85
44.99
49.64
51.07
51.26
52.13
54.60
58.11
60.76
60.05
53.94
41.62
23.76
2.02
-21.50
-45.00
-67.51
-89.12
-110.92
-134.64
-161.81
-192.52
-224.39
-252.15
-268.60
-266.71
-242.17
-195.29
-131.16
-58.24
14.20
78.52
130.11
167.43
191.14
203.00
205.02
199.21
187.59
172.21
154.92
137.02
119.07
101.19
83.74
67.60
54.46
46.18
43.97
47.70
55.75
65.52
74.32
80.27
82.67
81.86
78.64
73.73
67.51
60.11
51.64
42.36
32.72
23.27
14.45
6.62
0.09
-4.83
-7.79
-8.45
-6.73
-3.05
1.62
5.82
7.96
6.71
1.41
-7.81
-19.95
-33.46
-46.50
-57.29
-64.45
-67.29
-66.05
-62.10
-57.84
-56.09
-59.02
-66.84
-77.14
-85.41
-86.66
-77.51
-57.64
-29.90
0.98
30.31
55.11
74.39
88.58
98.54
104.85
107.94
108.45
107.41
105.92
104.59
103.04
100.01
93.92
83.60
68.77
50.20
29.29
7.53
-14.03
-34.92
-55.07
-74.42
-92.61
-108.96
-122.66
-133.15
-140.51
-145.39
-148.85
-151.96
-155.62
-160.64
-168.06
-179.20
-195.22
-216.25
-240.61
-264.65
-283.49
-292.38
-288.17
-270.07
-239.62
-200.08
-155.43
-109.68
-66.37
-28.32
2.57
25.41
40.41
48.65
51.72
51.30
48.88
45.71
42.79
40.90
40.48
41.54
43.70
46.29
48.72
50.56
51.67
52.11
51.91
50.99
49.06
45.77
40.92
34.64
27.43
20.06
13.28
7.53
2.74
-1.65
-6.53
-12.85
-21.28
-31.82
-43.57
-54.76
-63.09
-66.38
-63.30
-53.82
-39.20
-21.51
-2.90
14.92
30.99
44.89
56.54
65.99
73.28
78.38
81.10
81.08
77.98
71.68
62.62
51.95
41.22
31.96
25.12
20.89
18.77
17.98
17.93
18.28
18.91
19.60
19.93
19.34
17.34
13.82
9.16
4.09
-0.51
-3.98
-6.09
-7.13
-7.83
-9.16
-12.01
-16.93
-23.80
-31.67
-38.88
-43.40
-43.55
-38.62
-29.18
-16.90
-3.91
8.02
18.05
26.29
33.36
39.84
45.85
51.03
54.86
57.05
57.77
57.51
56.85
56.18
55.59
54.99
54.26
53.36
52.37
51.38
50.53
49.82
49.16
48.38
47.20
45.31
42.42
38.35
33.15
27.10
20.64
14.25
8.27
2.84
-2.21
-7.22
-12.61
-18.80
-26.11
-34.62
-44.08
-53.73
-62.34
-68.31
-70.16
-66.97
-58.75
-46.56
-32.08
-17.10
-2.97
9.65
20.68
30.28
38.55
45.31
50.27
53.21
54.13
53.34
51.22
48.23
44.74
41.00
37.26
33.69
30.51
27.88
25.96
24.80
24.42
24.66
25.23
25.62
25.29
23.80
20.97
17.01
12.36
7.56
2.95
-1.48
-6.07
-11.36
-17.88
-25.93
-35.42
-45.74
-55.72
-63.82
-68.41
-68.26
-62.91
-52.85
-39.41
-24.37
-9.45
4.08
15.50
24.62
31.51
36.30
39.16
40.26
39.86
38.33
36.09
33.57
31.10
28.81
26.67
24.54
22.31
20.04
17.95
16.36
15.45
15.03
14.54
13.26
10.62
6.51
1.34
-4.15
-9.21
-13.43
-16.84
-19.86
-23.05
-26.98
-32.03
-38.36
-45.69
-53.25
-59.72
-63.45
-63.01
-57.65
-47.66
-34.28
-19.38
-4.78
8.18
18.83
27.08
33.09
37.03
38.99
39.11
37.70
35.33
32.69
30.42
28.90
28.20
28.13
28.43
28.92
29.57
30.48
31.67
33.01
34.16
34.67
34.13
32.40
29.66
26.41
23.31
20.92
19.49
18.76
17.99
16.17
12.46
6.70
-0.22
-6.38
-9.35
-7.07
1.28
14.74
30.76
46.09
57.90
64.76
67.01
66.27
64.50
63.01
61.93
60.35
57.05
51.31
43.52
35.03
27.71
23.16
22.24
24.77
29.63
34.94
38.31
37.38
30.47
17.53
0.57
-16.60
-29.50
-34.67
-31.20
-21.40
-10.23
-3.63
-6.37
-20.39
-44.12
-73.18
-101.96
-125.48
-140.64
-146.55
-144.00
-134.39
-119.07
-99.26
-76.57
-53.64
-34.23
-22.48
-21.55
-32.23
-52.31
-77.00
-100.40
-117.25
-124.24
-120.48
-106.95
-85.69
-59.13
-29.93
-1.08
24.02
42.08
50.71
49.17
38.70
22.01
2.44
-16.89
-33.62
-46.14
-53.51
-55.49
-52.46
-45.24
-34.76
-21.75
-6.88
8.60
22.23
30.22
28.34
13.63
-13.97
-51.00
-91.33
-128.23
-156.49
-173.57
-179.46
-175.48
-163.23
-144.09
-119.56
-91.65
-63.15
-37.15
-16.16
-1.22
8.51
15.46
22.62
32.51
46.44
64.42
85.24
106.70
125.97
140.36
148.28
149.88
146.92
141.89
136.80
132.21
127.10
119.53
107.76
91.13
70.42
47.44
24.40
3.29
-14.34
-27.34
-34.93
-36.72
-32.65
-22.87
-7.72
12.02
34.63
57.42
77.34
91.88
99.82
101.24
97.03
88.00
74.52
56.56
34.24
8.33
-19.62
-47.53
-73.11
-94.18
-108.79
-115.44
-113.37
-102.90
-85.69
-64.47
-42.35
-22.05
-5.22
7.59
16.63
22.42
25.36
25.71
23.57
19.16
12.92
5.51
-2.20
-9.12
-14.09
-16.01
-14.15
-8.44
0.44
11.15
22.09
31.86
39.55
44.83
47.81
48.82
48.22
46.33
43.40
39.72
35.56
31.29
27.24
23.64
20.55
17.79
15.14
12.49
10.10
8.52
8.37
9.90
12.75
15.91
18.17
18.58
16.90
13.66
9.83
6.32
3.57
1.48
-0.48
-2.93
-6.37
-11.06
-17.06
-24.10
-31.52
-38.24
-42.81
-43.80
-40.33
-32.44
-21.13
-8.09
4.92
16.60
26.28
33.90
39.68
43.87
46.59
47.87
47.77
46.46
44.19
41.29
38.10
34.89
31.83
28.91
25.90
22.34
17.71
11.56
3.76
-5.36
-15.10
-24.61
-33.18
-40.51
-46.70
-52.11
-57.07
-61.69
-65.77
-68.94
-70.82
-71.19
-70.03
-67.51
-63.93
-59.65
-55.13
-50.92
-47.52
-45.18
-43.68
-42.26
-39.80
-35.11
-27.48
-16.97
-4.49
8.51
20.47
30.28
37.50
42.39
45.64
47.94
49.78
51.32
52.51
53.25
53.50
53.25
52.47
50.96
48.48
44.84
40.14
34.79
29.39
24.49
20.29
16.58
12.80
8.32
2.80
-3.69
-10.67
-17.46
-23.45
-28.38
-32.37
-35.86
-39.39
-43.38
-48.01
-53.21
-58.72
-64.08
-68.56
-71.12
-70.61
-66.03
-57.09
-44.42
-29.62
-14.67
-1.30
9.61
18.17
25.10
31.20
36.84
41.81
45.55
47.54
47.62
46.10
43.61
40.88
38.54
36.99
36.43
36.85
38.02
39.65
41.22
42.17
41.84
39.78
36.08
31.57
27.77
26.23
27.80
31.96
36.85
39.91
39.01
33.31
23.60
11.83
0.09
-10.14
-18.49
-25.36
-31.41
-36.96
-41.69
-44.88
-45.76
-44.04
-40.10
-34.92
-29.66
-25.13
-21.44
-18.07
-14.32
-9.76
-4.60
0.44
4.54
7.28
8.81
9.72
10.60
11.66
12.65
13.02
12.28
10.23
7.03
3.08
-1.21
-5.52
-9.54
-13.06
-15.92
-18.11
-19.83
-21.45
-23.38
-25.79
-28.52
-31.04
-32.74
-33.25
-32.68
-31.70
-31.27
-32.19
-34.79
-38.77
-43.25
-47.20
-49.65
-50.02
-48.08
-43.88
-37.58
-29.47
-19.98
-9.80
0.25
9.32
16.79
22.34
26.00
27.98
28.54
27.95
26.51
24.63
22.87
21.81
21.87
23.13
25.19
27.36
28.86
29.16
28.07
25.68
22.20
17.76
12.40
6.20
-0.57
-7.42
-13.74
-19.07
-23.36
-27.04
-30.93
-35.93
-42.62
-51.01
-60.31
-69.13
-75.84
-79.00
-77.85
-72.43
-63.54
-52.32
-40.01
-27.68
-16.16
-6.07
2.19
8.58
13.42
17.34
21.02
24.88
28.88
32.64
35.72
37.83
39.08
39.86
40.68
41.92
43.82
46.43
49.66
53.26
56.77
59.59
61.04
60.61
58.15
53.92
48.53
42.66
36.93
31.77
27.41
24.00
21.61
20.19
19.53
19.14
18.39
16.78
14.25
11.42
9.55
10.10
14.17
21.83
31.98
42.59
51.59
57.64
60.72
61.99
63.10
65.33
69.19
74.52
80.79
87.25
92.68
95.16
92.45
83.18
68.37
52.01
39.90
36.97
44.46
58.64
72.15
77.41
70.11
50.89
24.30
-4.23
-31.20
-56.17
-80.68
-106.11
-132.00
-156.03
-175.24
-187.71
-193.56
-194.61
-193.23
-191.02
-188.30
-184.26
-177.89
-168.65
-156.82
-143.44
-129.86
-117.43
-107.11
-99.34
-93.84
-89.69
-85.57
-80.10
-72.38
-62.31
-50.64
-38.64
-27.55
-18.05
-10.16
-3.45
2.67
8.61
14.57
20.51
26.19
31.05
34.20
34.59
31.38
24.47
14.72
3.86
-6.14
-13.77
-18.38
-20.19
-19.84
-17.95
-14.82
-10.66
-5.72
-0.54
4.24
8.04
10.62
12.16
13.07
13.70
14.10
13.92
12.71
10.17
6.46
2.16
-1.99
-5.49
-8.34
-11.02
-14.14
-18.10
-22.80
-27.65
-31.93
-35.12
-37.17
-38.48
-39.67
-41.36
-43.95
-47.55
-51.94
-56.55
-60.39
-62.14
-60.47
-54.43
-43.82
-29.22
-11.79
7.23
26.83
46.31
65.10
82.59
98.05
110.91
121.05
128.97
135.57
141.50
146.65
149.82
149.09
142.67
129.75
111.08
88.97
66.58
46.93
32.04
22.44
17.29
15.05
14.14
13.48
12.62
11.49
10.19
8.61
6.49
3.47
-0.85
-6.77
-14.48
-23.92
-34.66
-45.75
-55.80
-63.34
-67.17
-66.77
-62.37
-54.91
-45.86
-36.88
-29.52
-24.76
-22.54
-21.36
-18.67
-11.68
1.09
18.78
38.07
54.43
64.13
65.86
61.20
53.57
46.40
41.56
38.83
36.61
33.11
27.30
19.10
9.02
-2.40
-14.77
-27.63
-40.31
-51.90
-61.60
-68.96
-74.03
-77.23
-79.17
-80.54
-82.03
-84.26
-87.42
-90.83
-92.72
-90.45
-81.35
-63.75
-37.79
-5.50
29.88
64.99
97.32
125.57
149.31
168.41
182.61
191.62
195.30
194.00
188.40
179.18
166.56
150.27
129.78
104.99
76.66
46.51
16.78
-10.37
-33.32
-51.04
-63.02
-69.18
-69.89
-66.14
-59.60
-52.30
-46.12
-42.23
-40.86
-41.33
-42.58
-43.70
-44.35
-44.76
-45.55
-47.40
-50.63
-55.06
-59.91
-64.01
-66.11
-65.32
-61.47
-55.23
-47.97
-41.21
-36.12
-33.16
-32.07
-32.09
-32.35
-32.05
-30.61
-27.66
-23.15
-17.39
-11.05
-4.87
0.68
5.68
10.68
16.31
22.74
29.45
35.32
39.07
39.73
36.98
31.07
22.56
12.15
0.67
-10.69
-20.26
-26.01
-26.19
-20.06
-8.38
6.77
22.63
36.86
48.20
56.71
63.27
68.84
73.83
78.02
80.95
82.40
82.73
82.60
82.42
82.03
80.61
77.21
71.38
63.63
55.21
47.45
40.97
35.33
29.33
21.76
12.17
1.23
-9.64
-18.95
-25.78
-30.04
-32.26
-33.17
-33.31
-32.98
-32.36
-31.77
-31.65
-32.46
-34.31
-36.70
-38.53
-38.38
-35.01
-27.73
-16.42
-1.23
17.61
39.81
64.64
90.46
114.72
134.51
147.53
153.00
151.86
146.14
137.85
128.11
116.93
103.76
88.35
71.38
54.40
39.21
27.06
18.14
11.68
6.32
0.86
-5.24
-11.69
-17.64
-22.08
-24.15
-23.27
-19.10
-11.64
-1.46
10.15
21.09
28.86
31.21
26.85
15.84
-0.52
-20.20
