1663883119.00
64.000000
-0.00
-0.00
-0.00
-0.00
-0.00
-0.00
-0.00
-0.00
-0.00
-0.00
0.00
0.01
0.01
-0.00
-0.03
-0.05
-0.05
0.00
0.13
0.36
0.66
1.01
1.37
1.72
2.06
2.40
2.79
3.24
3.80
4.42
5.06
5.66
6.20
6.68
7.15
7.68
8.31
9.14
10.09
11.04
11.88
12.56
13.14
13.76
14.65
15.96
17.91
20.32
22.90
25.38
27.58
29.57
31.68
34.32
37.81
42.54
48.15
54.10
59.83
64.97
69.58
74.14
79.34
85.71
93.76
103.00
112.62
121.73
129.77
136.75
143.30
150.75
157.77
166.64
177.95
191.79
206.97
220.57
228.25
225.36
208.53
176.87
132.76
80.05
23.07
-34.94
-92.44
-149.16
-205.23
-260.37
-313.74
-363.87
-409.83
-450.91
-486.50
-515.74
-537.23
-549.22
-549.96
-538.37
-514.21
-478.67
-433.88
-382.45
-327.02
-269.84
-212.63
-156.66
-102.95
-52.37
-5.90
35.58
71.43
101.35
125.50
144.38
158.69
169.15
176.37
180.75
182.57
182.07
179.51
175.23
169.65
163.18
156.15
148.81
141.30
133.69
126.02
118.33
110.69
103.16
95.80
88.68
81.83
75.25
68.95
62.95
57.25
51.86
46.78
42.03
37.59
33.45
29.61
26.07
22.81
19.83
17.11
14.67
12.48
10.54
8.83
7.35
6.07
4.97
4.05
3.27
2.62
2.09
1.65
1.30
1.01
0.79
0.61
0.48
0.37
0.28
0.22
0.18
0.17
0.17
0.18
0.19
0.18
0.13
0.06
-0.02
-0.07
-0.08
-0.04
0.02
0.09
0.12
0.10
0.04
-0.03
-0.07
-0.04
0.04
0.16
0.26
0.28
0.20
0.05
-0.12
-0.19
-0.12
0.12
0.43
0.69
0.74
0.53
0.11
-0.35
-0.61
-0.50
-0.00
0.70
1.29
1.46
1.07
0.23
-0.70
-1.28
-1.17
-0.34
0.87
1.92
2.27
1.71
0.43
-1.01
-1.92
-1.88
-0.85
0.78
2.33
3.18
2.90
1.16
-2.22
-7.11
-12.73
-17.50
-19.34
-16.58
-8.93
2.09
13.46
21.89
25.27
23.51
18.34
12.21
7.05
3.51
1.18
-0.71
-2.46
-3.72
-3.88
-2.73
-0.75
1.04
1.63
0.57
-1.72
-4.18
-5.77
-5.96
-4.98
-3.67
-2.94
-3.34
-4.71
-6.39
-7.54
-7.61
-6.57
-4.91
-3.32
-2.46
-2.58
-3.62
-5.09
-6.35
-6.73
-5.72
-3.05
1.15
6.33
11.63
16.09
18.95
19.85
18.92
16.66
13.66
10.47
7.47
4.95
3.14
2.30
2.59
4.00
6.22
8.73
10.89
12.16
12.22
11.00
8.70
5.81
2.89
0.45
-1.21
-2.01
-2.09
-1.74
-1.27
-0.97
-1.09
-1.77
-3.07
-4.92
-7.18
-9.65
-12.23
-14.94
-17.98
-21.57
-25.87
-30.68
-35.40
-38.99
-40.23
-38.08
-32.07
-22.43
-10.14
3.34
16.43
27.79
36.56
42.35
45.18
45.31
43.22
39.54
35.01
30.39
26.38
23.43
21.67
20.98
21.01
21.35
21.59
21.38
20.49
18.76
16.09
12.45
7.85
2.41
-3.61
-9.78
-15.61
-20.61
-24.50
-27.24
-28.96
-29.91
-30.31
-30.38
-30.36
-30.55
-31.23
-32.48
-34.00
-35.01
-34.58
-31.87
-26.58
-18.95
-9.70
0.34
10.47
20.09
28.63
35.26
38.96
38.76
34.14
25.51
14.23
2.40
-7.84
-14.93
-18.38
-18.76
-17.30
-15.28
-13.53
-12.33
-11.54
-11.02
-10.86
-11.39
-12.95
-15.60
-19.02
-22.51
-25.37
-27.08
-27.52
-26.99
-26.07
-25.41
-25.62
-27.07
-29.78
-33.32
-36.87
-39.33
-39.58
-36.82
-30.79
-21.97
-11.47
-0.70
9.04
16.92
22.73
26.72
29.30
30.75
31.09
30.29
28.44
25.99
23.54
21.76
20.95
21.04
21.60
22.08
22.09
21.46
20.22
18.50
16.39
13.97
11.21
8.17
4.98
1.82
-1.11
-3.69
-5.97
-8.11
-10.43
-13.18
-16.57
-20.75
-25.81
-31.72
-38.19
-44.52
-49.55
-51.90
-50.48
-44.88
-35.74
-24.39
-12.25
-0.27
11.06
21.32
29.68
34.88
35.77
32.18
25.31
17.35
10.58
6.25
4.34
4.09
4.82
6.58
9.96
15.38
22.36
29.51
35.08
37.89
37.84
35.74
32.69
29.40
25.99
22.07
17.29
11.63
5.58
-0.14
-4.89
-8.47
-11.24
-13.96
-17.42
-22.07
-27.73
-33.53
-38.15
-40.25
-38.84
-33.60
-24.93
-13.82
-1.51
10.72
21.81
31.02
37.92
42.37
44.47
44.49
42.89
40.24
37.16
34.28
32.06
30.70
30.07
29.73
29.12
27.74
25.42
22.35
18.94
15.62
12.64
9.98
7.51
5.10
2.77
0.69
-1.03
-2.43
-3.75
-5.30
-7.29
-9.72
-12.38
-15.00
-17.42
-19.69
-22.04
-24.72
-27.97
-31.86
-36.21
-40.60
-44.28
-46.32
-45.73
-41.86
-34.59
-24.57
-12.97
-1.22
9.47
18.31
25.04
29.72
32.55
33.83
33.84
32.95
31.63
30.38
29.67
29.82
30.91
32.74
34.86
36.69
37.79
37.94
37.28
36.21
35.16
34.31
33.56
32.55
30.93
28.59
25.77
22.93
20.51
18.71
17.40
16.21
14.81
13.03
11.00
9.05
7.52
6.68
6.57
6.99
7.60
8.06
8.11
7.67
6.84
5.98
5.53
5.92
7.19
8.84
9.75
8.48
3.84
-4.54
-15.86
-28.28
-39.48
-47.44
-51.05
-50.43
-46.69
-41.39
-35.98
-31.29
-27.49
-24.24
-21.02
-17.54
-13.93
-10.80
-9.11
-9.77
-13.30
-19.53
-27.57
-35.98
-43.34
-48.58
-51.41
-52.17
-51.68
-50.80
-50.20
-50.24
-51.04
-52.55
-54.57
-56.74
-58.59
-59.65
-59.66
-58.84
-57.89
-57.79
-59.40
-62.95
-67.83
-72.61
-75.48
-74.81
-69.70
-60.12
-46.76
-30.59
-12.49
6.88
26.78
46.20
63.52
76.88
84.65
86.10
81.78
73.41
63.39
53.98
46.81
42.51
40.86
41.06
41.97
42.33
40.81
36.07
26.89
12.56
-6.88
-30.32
-55.76
-80.65
-102.47
-119.12
-129.10
-131.45
-125.63
-111.57
-90.02
-62.81
-32.94
-4.05
20.51
38.64
49.92
55.45
57.04
56.39
54.57
52.10
49.36
46.97
45.81
46.65
49.63
54.01
58.32
60.90
60.50
56.63
49.59
40.14
29.19
17.57
6.15
-4.12
-12.06
-16.48
-16.47
-11.73
-2.68
9.65
23.87
38.47
52.02
63.43
72.14
78.22
82.23
84.93
86.83
87.87
87.50
85.03
80.12
73.00
64.39
55.25
46.34
38.05
30.45
23.49
17.05
11.05
5.37
-0.08
-5.23
-9.74
-12.94
-13.96
-12.08
-7.07
0.52
9.36
17.62
23.48
25.57
23.43
17.53
9.21
0.24
-7.64
-13.17
-15.95
-16.45
-15.83
-15.52
-16.67
-19.86
-24.95
-31.31
-38.03
-44.26
-49.33
-52.85
-54.75
-55.23
-54.67
-53.50
-51.96
-50.00
-47.32
-43.54
-38.40
-32.00
-24.63
-16.81
-9.04
-1.78
4.55
9.61
13.10
14.82
14.80
13.28
10.67
7.43
3.94
0.43
-2.98
-6.19
-8.97
-11.00
-11.96
-11.69
-10.30
-8.22
-5.98
-3.95
-2.23
-0.63
1.13
3.15
5.24
6.90
7.58
6.83
4.48
0.63
-4.41
-10.18
-16.12
-21.57
-25.77
-28.07
-28.03
-25.58
-21.05
-15.18
-8.92
-3.21
1.23
4.16
5.75
6.42
6.50
6.06
4.95
3.02
0.41
-2.41
-4.87
-6.55
-7.51
-8.16
-9.01
-10.29
-11.91
-13.55
-14.92
-16.01
-17.00
-18.06
-19.15
-19.98
-20.15
-19.47
-18.07
-16.44
-15.23
-14.96
-15.75
-17.15
-18.25
-17.96
-15.43
-10.43
-3.48
4.32
11.71
17.76
22.07
24.76
26.18
26.65
26.25
25.00
23.00
20.62
18.44
17.07
16.82
17.57
18.79
19.89
20.36
20.02
18.98
17.48
15.70
13.75
11.67
9.45
7.05
4.23
0.52
-4.61
-11.44
-19.74
-28.54
-36.49
-42.22
-44.85
-44.11
-40.29
-33.91
-25.54
-15.70
-4.99
5.75
15.51
23.31
28.44
30.65
30.16
27.51
23.35
18.33
12.97
7.67
2.74
-1.60
-5.24
-8.20
-10.63
-12.81
-15.00
-17.34
-19.80
-22.22
-24.43
-26.47
-28.55
-31.08
-34.43
-38.75
-43.78
-48.89
-53.12
-55.46
-55.10
-51.63
-45.24
-36.62
-26.77
-16.74
-7.36
0.89
7.80
13.27
17.22
19.50
20.08
19.11
17.07
14.61
12.37
10.82
10.10
10.02
10.18
10.12
9.48
8.04
5.78
2.82
-0.60
-4.31
-8.20
-12.30
-16.73
-21.64
-27.15
-33.30
-39.85
-46.30
-51.73
-54.99
-54.95
-50.85
-42.71
-31.35
-18.17
-4.65
8.00
19.10
28.40
35.76
41.01
43.94
44.47
42.80
39.47
35.26
30.88
26.86
23.39
20.43
17.81
15.33
12.84
10.21
7.32
4.12
0.64
-2.98
-6.51
-9.70
-12.42
-14.77
-17.11
-19.94
-23.73
-28.51
-33.79
-38.44
-41.04
-40.33
-35.58
-26.97
-15.52
-2.68
10.07
21.62
31.31
38.91
44.33
47.51
48.47
47.34
44.56
40.79
36.79
33.21
30.40
28.35
26.86
25.63
24.47
23.26
21.94
20.34
18.27
15.49
11.85
7.34
2.10
-3.63
-9.59
-15.63
-21.72
-28.01
-34.82
-42.52
-51.34
-61.01
-70.68
-78.90
-84.02
-84.70
-80.41
-71.57
-59.46
-45.69
-31.76
-18.84
-7.63
1.40
7.96
11.96
13.57
13.29
11.95
10.55
10.09
11.37
14.89
20.80
28.86
38.50
48.91
59.24
68.72
76.79
83.12
87.53
89.90
90.13
88.23
84.39
79.04
72.83
66.43
60.31
54.64
49.30
44.03
38.64
33.12
27.70
22.63
18.09
14.01
10.13
6.10
1.63
-3.43
-8.98
-14.80
-20.59
-26.07
-31.14
-35.82
-40.35
-45.06
-50.42
-56.78
-64.27
-72.43
-80.14
-85.72
-87.32
-83.63
-74.32
-60.26
-43.22
-25.22
-7.96
7.59
21.06
32.41
41.54
48.25
52.36
53.96
53.52
51.87
49.97
48.54
47.97
48.19
48.87
49.56
49.89
49.67
48.93
47.77
46.22
44.25
41.72
38.57
34.92
31.07
27.42
24.24
21.55
19.08
16.41
13.22
9.45
5.38
1.46
-1.87
-4.38
-6.22
-7.74
-9.41
-11.53
-14.20
-17.27
-20.49
-23.58
-26.41
-29.00
-31.47
-34.00
-36.80
-40.16
-44.43
-49.86
-56.36
-63.28
-69.33
-72.83
-72.26
-66.79
-56.64
-42.94
-27.35
-11.55
3.21
16.16
26.91
35.25
41.11
44.51
45.70
45.10
43.29
40.86
38.29
35.96
34.08
32.77
32.07
31.93
32.23
32.78
33.34
33.65
33.49
32.67
31.08
28.72
25.76
22.50
19.34
16.65
14.61
13.07
11.63
9.78
7.21
3.96
0.40
-2.94
-5.73
-7.94
-9.90
-12.00
-14.51
-17.44
-20.59
-23.73
-26.75
-29.65
-32.53
-35.46
-38.50
-41.75
-45.41
-49.64
-54.42
-59.29
-63.30
-65.21
-63.79
-58.31
-48.79
-36.03
-21.40
-6.45
7.44
19.39
28.95
36.03
40.76
43.32
43.91
42.85
40.59
37.70
34.84
32.54
31.10
30.51
30.53
30.81
31.01
30.96
30.63
30.06
29.27
28.18
26.61
24.44
21.71
18.70
15.87
13.65
12.18
11.25
10.33
8.85
6.52
3.40
-0.10
-3.50
-6.46
-8.90
-10.94
-12.83
-14.75
-16.89
-19.33
-22.08
-25.03
-27.95
-30.63
-32.95
-35.07
-37.44
-40.63
-45.00
-50.43
-56.13
-60.84
-63.13
-61.88
-56.66
-47.71
-35.94
-22.57
-8.91
3.89
14.96
23.72
29.89
33.46
34.65
33.90
31.78
28.89
25.82
23.11
21.14
20.20
20.30
21.22
22.53
23.70
24.31
24.19
23.42
22.26
20.95
19.65
18.33
16.86
15.11
13.05
10.72
8.22
5.64
3.06
0.54
-1.86
-4.13
-6.30
-8.50
-10.85
-13.46
-16.27
-19.17
-21.97
-24.54
-26.87
-28.98
-30.97
-32.92
-34.99
-37.40
-40.46
-44.38
-49.06
-53.82
-57.46
-58.54
-55.90
-49.08
-38.54
-25.51
-11.57
1.84
13.68
23.40
30.84
36.02
39.04
40.04
39.31
37.33
34.69
32.03
29.89
28.62
28.29
28.77
29.74
30.78
31.50
31.59
30.95
29.60
27.71
25.49
23.07
20.56
17.99
15.46
13.05
10.88
8.93
7.02
4.90
2.39
-0.50
-3.49
-6.23
-8.43
-10.11
-11.53
-13.12
-15.21
-17.81
-20.72
-23.54
-26.01
-28.07
-29.92
-31.96
-34.55
-37.98
-42.31
-47.40
-52.84
-57.90
-61.61
-62.89
-60.81
-54.83
-45.12
-32.52
-18.39
-4.29
8.41
18.75
26.31
31.10
33.48
33.96
33.11
31.50
29.62
27.82
26.40
25.53
25.28
25.62
26.40
27.40
28.41
29.26
29.84
30.09
29.96
29.34
28.10
26.15
23.52
20.42
17.21
14.28
11.88
10.00
8.42
6.70
4.54
1.87
-1.08
-3.89
-6.21
-7.98
-9.50
-11.26
-13.66
-16.76
-20.28
-23.71
-26.68
-29.04
-31.04
-33.04
-35.43
-38.54
-42.51
-47.35
-52.72
-57.95
-61.90
-63.29
-61.02
-54.65
-44.56
-31.87
-18.07
-4.57
7.55
17.63
25.26
30.25
32.61
32.61
30.88
28.27
25.69
23.84
23.06
23.28
24.17
25.28
26.29
27.07
27.65
28.13
28.55
28.83
28.74
28.04
26.58
24.42
21.80
19.03
16.42
14.09
12.03
10.07
8.05
5.84
3.39
0.80
-1.82
-4.33
-6.67
-8.88
-11.05
-13.30
-15.71
-18.29
-20.96
-23.64
-26.25
-28.84
-31.55
-34.62
-38.30
-42.82
-48.16
-53.89
-59.09
-62.46
-62.63
-58.62
-50.26
-38.31
-24.22
-9.74
3.62
14.87
23.56
29.68
33.37
34.84
34.37
32.42
29.62
26.69
24.32
22.91
22.56
23.03
23.95
24.97
25.84
26.48
26.85
26.99
26.86
26.39
25.48
23.98
21.77
18.77
14.98
10.57
5.86
1.24
-2.90
-6.36
-9.15
-11.53
-13.86
-16.47
-19.45
-22.70
-25.96
-28.97
-31.65
-34.11
-36.62
-39.53
-43.11
-47.50
-52.69
-58.36
-63.84
-68.05
-69.77
-67.82
-61.52
-51.01
-37.21
-21.59
-5.75
9.00
21.76
32.09
39.78
44.75
47.05
46.90
44.81
41.58
38.05
34.98
32.83
31.69
31.34
31.42
31.52
31.38
30.90
30.12
29.06
27.70
25.88
23.44
20.28
16.52
12.49
8.64
5.40
2.93
1.07
-0.60
-2.58
-5.26
-8.69
-12.60
-16.49
-19.88
-22.54
-24.58
-26.46
-28.78
-32.08
-36.69
-42.60
-49.52
-56.77
-63.35
-67.88
-68.89
-65.24
-56.54
-43.44
-27.52
-10.82
4.76
17.94
28.19
35.53
40.24
42.64
43.04
41.79
39.41
36.57
33.90
31.92
30.87
30.72
31.26
32.11
32.93
33.44
33.51
33.20
32.63
31.95
31.17
30.15
28.64
26.42
23.42
19.78
15.83
11.91
8.20
4.60
0.77
-3.65
-8.85
-14.60
-20.37
-25.49
-29.49
-32.30
-34.27
-36.03
-38.19
-41.17
-45.17
-50.26
-56.33
-63.01
-69.46
-74.38
-76.19
-73.59
-66.04
-54.00
-38.84
-22.32
-6.10
8.65
21.33
31.68
39.65
45.28
48.65
50.00
49.76
48.45
46.66
44.89
43.53
42.80
42.71
43.11
43.69
44.16
44.23
43.80
42.86
41.47
39.68
37.47
34.80
31.57
27.83
23.79
19.77
16.07
12.85
10.04
7.38
4.57
1.42
-2.07
-5.77
-9.54
-13.27
-16.96
-20.65
-24.28
-27.76
-30.95
-33.79
-36.41
-39.13
-42.45
-46.72
-51.93
-57.43
-61.93
-63.77
-61.47
-54.24
-42.42
-27.45
-11.42
3.58
15.98
25.05
30.84
33.89
34.81
34.14
32.26
29.53
26.38
23.39
21.26
20.54
21.48
23.83
26.99
30.21
32.89
34.75
35.79
36.13
35.79
34.67
32.61
29.58
25.74
21.40
16.92
12.56
8.41
4.48
0.78
-2.69
-5.93
-9.05
-12.25
-15.73
-19.50
-23.37
-26.97
-29.90
-31.97
-33.32
-34.30
-35.45
-37.24
-40.04
-44.01
-49.05
-54.64
-59.80
-63.16
-63.22
-58.88
-49.83
-36.77
-21.20
-5.01
10.04
22.71
32.37
38.88
42.43
43.36
42.19
39.58
36.34
33.29
31.15
30.30
30.69
31.88
33.25
34.24
34.59
34.30
33.57
32.60
31.43
29.99
28.15
25.86
23.18
20.18
16.93
13.48
9.87
6.10
2.18
-1.92
-6.30
-10.98
-15.83
-20.56
-24.79
-28.25
-30.93
-33.13
-35.34
-38.06
-41.69
-46.34
-51.80
-57.41
-62.05
-64.26
-62.65
-56.34
-45.37
-30.78
-14.38
1.85
16.27
27.92
36.47
42.06
44.94
45.42
43.81
40.59
36.45
32.30
28.97
27.02
26.55
27.12
28.05
28.64
28.51
27.70
26.50
25.17
23.77
22.09
19.82
16.85
13.35
9.69
6.21
3.02
-0.09
-3.40
-7.09
-11.07
-15.05
-18.72
-22.05
-25.32
-29.06
-33.80
-39.78
-46.72
-53.72
-59.44
-62.40
-61.42
-56.00
-46.45
-33.90
-19.89
-5.98
6.59
17.01
24.94
30.28
33.16
33.81
32.59
30.08
26.97
24.05
21.98
21.16
21.57
22.75
24.02
24.73
24.56
23.59
22.19
20.73
19.32
17.74
15.54
12.37
8.18
3.29
-1.82
-6.69
-11.11
-15.22
-19.28
-23.59
-28.36
-33.69
-39.64
-46.11
-52.77
-58.90
-63.35
-64.79
-62.08
-54.78
-43.33
-29.06
-13.72
1.01
13.91
24.36
32.17
37.37
40.03
40.29
38.48
35.20
31.25
27.49
24.61
22.90
22.26
22.25
22.31
22.02
21.23
20.11
18.97
18.04
17.20
15.94
13.57
9.56
3.87
-2.86
-9.63
-15.43
-19.70
-22.54
-24.54
-26.50
-29.14
-32.89
-37.90
-43.96
-50.46
-56.33
-60.12
-60.29
-55.75
-46.32
-32.84
-17.03
-0.88
13.89
26.22
35.69
42.26
45.99
46.95
45.35
41.68
36.85
31.95
27.99
25.49
24.39
24.17
24.13
23.81
23.09
22.17
21.34
20.69
20.06
19.06
17.27
14.37
10.33
5.33
-0.22
-5.81
-10.96
-15.40
-19.15
-22.52
-26.10
-30.50
-36.22
-43.41
-51.66
-59.94
-66.69
-70.13
-68.75
-61.81
-49.64
-33.62
-15.74
1.92
17.69
30.62
40.33
46.86
50.39
51.23
49.76
46.60
42.54
38.46
35.11
32.96
32.09
32.21
32.83
33.42
33.56
33.04
31.82
30.05
27.88
25.42
22.72
19.74
16.36
12.44
7.85
2.59
-3.15
-9.07
-14.79
-20.00
-24.60
-28.70
-32.62
-36.77
-41.57
-47.31
-54.03
-61.33
-68.18
-73.07
-74.22
-70.19
-60.39
-45.43
-27.02
-7.52
10.78
26.18
37.80
45.51
49.63
50.66
49.18
45.90
41.72
37.62
34.45
32.72
32.41
33.01
33.78
34.15
33.87
33.10
32.19
31.37
30.54
29.28
27.07
23.53
18.68
12.84
6.58
0.44
-5.20
-10.23
-14.74
-18.99
-23.23
-27.67
-32.38
-37.25
-42.10
-46.73
-51.08
-55.30
-59.73
-64.89
-71.28
-79.19
-88.41
-98.00
-106.31
-111.36
-111.36
-105.37
-93.68
-77.72
-59.51
-41.05
-23.74
-8.24
5.37
17.24
27.54
36.33
43.76
50.07
55.75
61.27
67.01
73.04
79.11
84.63
88.90
91.36
91.76
90.31
87.48
83.83
79.78
75.47
70.84
65.74
60.12
54.05
47.68
41.25
34.94
28.96
23.41
18.35
13.74
9.35
4.91
0.18
-4.93
-10.25
-15.44
-20.21
-24.35
-27.97
-31.41
-35.25
-40.13
-46.51
-54.46
-63.38
-72.01
-78.51
-80.95
-77.85
-68.67
-54.08
-35.79
-16.12
2.66
18.83
31.45
40.32
45.67
47.94
47.61
45.24
41.59
37.56
34.08
31.82
31.01
31.39
32.45
33.62
34.58
35.23
35.64
35.82
35.71
35.10
33.79
31.64
28.66
25.05
21.04
16.85
12.68
8.66
4.86
1.35
-1.83
-4.71
-7.43
-10.28
-13.58
-17.49
-21.88
-26.35
-30.39
-33.69
-36.25
-38.45
-40.83
-43.91
-48.03
-53.31
-59.56
-66.14
-71.84
-75.04
-74.01
-67.56
-55.58
-39.25
-20.73
-2.42
13.71
26.54
35.83
41.83
44.98
45.66
44.26
41.32
37.57
33.84
30.82
28.95
28.25
28.46
29.17
30.05
30.86
31.53
32.04
32.34
32.30
31.73
30.45
28.34
25.42
21.80
17.70
13.37
9.06
4.93
1.10
-2.43
-5.74
-8.94
-12.14
-15.43
-18.85
-22.43
-26.20
-30.09
-33.93
-37.49
-40.55
-43.06
-45.32
-47.88
-51.34
-56.02
-61.60
-67.05
-70.80
-71.19
-67.04
-58.01
-44.72
-28.55
-11.27
5.39
20.03
31.70
39.98
44.86
46.63
45.85
43.20
39.47
35.42
31.72
28.83
27.00
26.24
26.39
27.23
28.49
30.00
31.60
33.14
34.43
35.23
35.29
34.33
32.24
28.99
24.80
19.98
14.91
9.93
5.26
0.99
-2.95
-6.66
-10.29
-13.93
-17.67
-21.50
-25.35
-29.04
-32.37
-35.21
-37.61
-39.86
-42.41
-45.79
-50.34
-56.12
-62.66
-69.05
-73.92
-75.80
-73.43
-66.21
-54.36
-39.00
-21.80
-4.64
10.85
23.59
33.04
39.15
42.19
42.58
40.86
37.67
33.78
30.00
27.06
25.38
25.01
25.63
26.67
27.58
27.99
27.84
27.24
26.29
25.00
23.18
20.63
17.26
13.25
8.98
4.92
1.39
-1.57
-4.22
-6.99
-10.24
-14.12
-18.49
-23.00
-27.29
-31.08
-34.33
-37.22
-40.10
-43.48
-47.86
-53.53
-60.28
-67.23
-72.90
-75.48
-73.50
-66.23
-54.07
-38.40
-21.10
-4.06
11.28
24.05
33.84
40.53
44.20
45.02
43.40
39.95
35.48
30.80
26.64
23.45
21.39
20.36
20.06
20.12
20.16
19.93
19.28
18.23
16.85
15.19
13.17
10.60
7.24
3.02
-1.97
-7.36
-12.71
-17.62
-21.95
-25.77
-29.35
-32.95
-36.87
-41.42
-46.87
-53.32
-60.44
-67.24
-72.10
-73.20
-69.11
-59.39
-44.80
-27.14
-8.58
8.92
24.00
36.05
44.86
50.46
52.96
52.64
50.02
45.92
41.31
37.05
33.68
31.32
29.80
28.79
28.05
27.47
27.00
26.60
26.14
25.44
24.30
22.59
20.23
17.20
13.49
9.08
4.02
-1.54
-7.36
-13.17
-18.71
-23.90
-28.76
-33.42
-38.03
-42.75
-47.74
-53.15
-58.99
-64.85
-69.78
-72.30
-70.90
-64.52
-53.16
-37.98
-20.96
-4.29
10.35
22.07
30.73
36.59
40.04
41.46
41.24
39.98
38.41
37.28
37.06
37.77
39.05
40.31
41.03
40.95
40.14
38.88
37.44
35.99
34.51
32.77
30.47
27.39
23.50
19.07
14.57
10.49
7.12
4.36
1.78
-1.19
-4.94
-9.46
-14.31
-18.88
-22.70
-25.62
-28.02
-30.56
-34.02
-39.00
-45.69
-53.64
-61.70
-68.13
-70.94
-68.48
-60.02
-46.03
-28.18
-8.83
9.68
25.60
38.04
46.90
52.48
55.15
55.25
53.06
49.03
43.87
38.51
33.93
30.82
29.37
29.21
29.62
29.77
29.13
27.55
25.24
22.52
19.51
16.08
11.92
6.80
0.75
-5.88
-12.54
-18.78
-24.29
-28.86
-32.19
-33.75
-32.94
-29.36
-23.23
-15.55
-7.82
-1.51
2.47
4.04
3.76
2.33
0.07
-3.22
-8.07
-14.93
-23.74
-33.79
-43.78
-52.06
-56.90
-56.82
-50.85
-38.82
-21.58
-0.96
20.54
40.31
56.19
66.90
72.07
72.15
68.03
60.83
51.77
42.16
33.29
26.29
21.91
20.29
20.93
22.80
24.77
25.99
26.06
25.08
23.36
21.12
18.41
15.19
11.62
8.27
6.07
6.07
8.84
14.13
20.78
27.01
31.06
31.73
28.67
22.41
13.92
4.32
-5.49
-14.89
-23.50
-31.18
-37.90
-43.83
-49.25
-54.37
-59.13
-63.00
-64.96
-63.79
-58.52
-48.87
-35.47
-19.83
-3.87
10.53
22.08
30.24
35.19
37.51
37.89
36.86
34.89
32.36
29.72
27.42
25.84
25.02
24.74
24.57
24.16
23.38
22.36
21.29
20.20
18.83
16.81
13.83
9.89
5.31
0.57
-3.88
-7.86
-11.37
-14.58
-17.65
-20.70
-23.82
-27.04
-30.39
-33.81
-37.18
-40.35
-43.33
-46.34
-49.81
-54.11
-59.18
-64.30
-68.05
-68.76
-65.04
-56.36
-43.24
-27.13
-9.95
6.48
20.79
32.16
40.23
44.97
46.55
45.34
41.95
37.17
31.87
26.80
22.47
19.15
16.91
15.64
15.17
15.24
15.51
15.62
15.34
14.57
13.37
11.89
10.23
8.39
6.25
3.68
0.64
-2.79
-6.43
-10.14
-13.77
-17.23
-20.44
-23.34
-25.98
-28.58
-31.50
-35.20
-39.83
-45.08
-50.02
-53.30
-53.47
-49.58
-41.42
-29.71
-15.82
-1.42
11.91
22.98
31.09
36.01
37.91
37.25
34.68
30.94
26.74
22.74
19.44
17.23
16.38
16.89
18.52
20.81
23.10
24.83
25.58
25.26
24.02
22.08
19.64
16.79
13.50
9.73
5.47
0.79
-4.19
-9.29
-14.28
-18.92
-22.97
-26.26
-28.87
-31.06
-33.36
-36.41
-40.74
-46.48
-53.16
-59.59
-64.11
-65.01
-61.09
-52.05
-38.67
-22.50
-5.51
10.49
24.18
34.81
42.15
46.32
47.64
46.54
43.52
39.08
33.79
28.24
23.03
18.67
15.51
13.65
12.91
13.00
13.59
14.47
15.50
16.52
17.29
17.48
16.75
14.93
12.08
8.47
4.37
-0.02
-4.64
-9.46
-14.34
-19.02
-23.18
-26.61
-29.35
-31.72
-34.20
-37.30
-41.34
-46.28
-51.63
-56.36
-59.10
-58.42
-53.33
-43.62
-30.10
-14.41
1.46
15.72
27.19
35.44
40.58
43.00
43.13
41.37
38.21
34.31
30.47
27.44
25.71
25.32
25.85
26.73
27.41
27.60
27.26
26.47
25.29
23.67
21.47
18.60
15.09
11.16
7.09
3.15
-0.56
-4.10
-7.62
-11.26
-15.02
-18.81
-22.39
-25.59
-28.35
-30.77
-33.15
-35.85
-39.27
-43.71
-49.20
-55.28
-60.95
-64.74
-65.07
-60.81
-51.66
-38.36
-22.49
-5.95
9.52
22.70
32.93
39.94
43.72
44.46
42.55
38.70
33.92
29.32
25.88
24.14
24.13
25.37
27.15
28.73
29.68
29.87
29.44
28.66
27.66
26.43
24.75
22.40
19.26
15.50
11.53
7.87
4.93
2.80
1.17
-0.54
-2.92
-6.30
-10.61
-15.36
-19.90
-23.67
-26.52
-28.67
-30.64
-33.04
-36.29
-40.60
-45.87
-51.58
-56.81
-60.26
-60.48
-56.27
-47.21
-33.91
-17.94
-1.40
13.73
26.07
35.05
40.72
43.47
43.72
41.93
38.65
34.62
30.67
27.57
25.80
25.44
26.21
27.57
28.99
30.05
30.55
30.50
30.02
29.29
28.32
27.03
25.18
22.58
19.17
15.13
10.87
6.85
3.38
0.48
-2.09
-4.73
-7.74
-11.26
-15.13
-19.05
-22.66
-25.70
-28.13
-30.09
-31.88
-33.88
-36.49
-40.08
-44.79
-50.45
-56.33
-61.19
-63.51
-61.89
-55.58
-44.78
-30.58
-14.69
1.13
15.38
27.04
35.50
40.48
41.99
40.38
36.41
31.15
25.74
21.06
17.59
15.44
14.46
14.43
15.16
16.39
17.82
19.02
19.58
19.22
17.90
15.79
13.15
10.24
7.17
3.99
0.70
-2.67
-6.06
-9.45
-12.86
-16.36
-20.00
-23.76
-27.45
-30.84
-33.74
-36.23
-38.68
-41.70
-45.90
-51.39
-57.59
-63.16
-66.37
-65.64
-60.02
-49.62
-35.46
-19.21
-2.66
12.60
25.44
35.22
41.74
45.09
45.65
44.00
40.89
37.17
33.60
30.76
28.94
28.09
27.93
28.12
28.35
28.49
28.51
28.39
28.05
27.27
25.79
23.45
20.27
16.51
12.50
8.55
4.79
1.18
-2.52
-6.51
-10.82
-15.28
-19.58
-23.38
-26.56
-29.27
-31.92
-35.04
-39.16
-44.55
-51.08
-58.08
-64.29
-68.11
-67.93
-62.74
-52.49
-38.26
-21.88
-5.43
9.39
21.62
30.95
37.46
41.35
42.77
41.97
39.50
36.21
33.08
30.87
29.88
29.87
30.28
30.55
30.37
29.76
28.98
28.29
27.83
27.51
27.07
26.19
24.59
22.12
18.83
15.00
11.01
7.23
3.82
0.67
-2.55
-6.27
-10.67
-15.67
-20.86
-25.73
-29.94
-33.45
-36.51
-39.63
-43.31
-47.97
-53.78
-60.45
-67.17
-72.52
-74.78
-72.39
-64.49
-51.35
-34.43
-15.89
1.98
17.44
29.56
38.17
43.53
46.03
46.06
44.06
40.71
36.89
33.59
31.60
31.24
32.26
33.92
35.33
35.86
35.30
33.96
32.39
31.03
30.07
29.31
28.40
27.06
25.19
22.87
20.29
17.57
14.74
11.77
8.57
5.09
1.24
-3.06
-7.88
-13.15
-18.62
-23.90
-28.62
-32.56
-35.77
-38.61
-41.58
-45.20
-49.80
-55.34
-61.27
-66.51
-69.65
-69.26
-64.37
-54.81
-41.35
-25.48
-9.01
6.41
19.61
30.00
37.42
41.95
43.74
43.10
40.50
36.67
32.60
29.24
27.29
26.89
27.64
28.80
29.65
29.83
29.43
28.83
28.37
28.11
27.79
26.92
25.06
22.04
18.03
13.47
8.92
4.87
1.60
-0.91
-2.94
-4.95
-7.38
-10.48
-14.19
-18.18
-22.01
-25.41
-28.32
-30.98
-33.76
-37.10
-41.34
-46.73
-53.20
-60.25
-66.80
-71.29
-72.00
-67.63
-57.79
-43.26
-25.76
-7.47
9.61
24.11
35.36
43.33
48.20
50.30
50.00
47.82
44.50
40.98
38.14
36.59
36.47
37.43
38.85
40.08
40.75
40.79
40.31
39.43
38.16
36.43
34.14
31.32
28.15
24.89
21.71
18.64
15.59
12.46
9.26
6.03
2.82
-0.43
-3.89
-7.76
-12.09
-16.76
-21.46
-25.89
-29.86
-33.38
-36.61
-39.80
-43.22
-47.15
-51.91
-57.81
-64.91
-72.70
-79.96
-84.83
-85.39
-80.29
-69.31
-53.52
-34.87
-15.61
2.36
17.80
30.12
39.20
45.16
48.32
49.19
48.44
46.84
45.08
43.61
42.62
42.11
41.98
42.11
42.42
42.80
43.16
43.35
43.22
42.62
41.45
39.65
37.25
34.35
31.18
27.98
24.96
22.17
19.48
16.58
13.21
9.25
4.88
0.55
-3.25
-6.24
-8.49
-10.48
-12.82
-16.01
-20.12
-24.88
-29.78
-34.42
-38.67
-42.69
-46.80
-51.35
-56.65
-62.92
-70.16
-77.97
-85.36
-90.72
-92.12
-87.97
-77.64
-61.80
-42.34
-21.71
-2.25
14.50
27.84
37.78
44.67
48.87
50.72
50.69
49.41
47.73
46.45
46.11
46.82
48.25
49.89
51.24
52.02
52.20
51.87
51.12
49.93
48.21
45.82
42.67
38.82
34.41
29.71
25.06
20.85
17.34
14.62
12.51
10.57
8.38
5.68
2.58
-0.56
-3.32
-5.53
-7.36
-9.32
-11.93
-15.50
-19.94
-24.85
-29.70
-34.14
-38.08
-41.72
-45.36
-49.31
-53.82
-59.08
-65.18
-71.93
-78.62
-83.97
-86.23
-83.70
-75.40
-61.52
-43.52
-23.64
-4.23
12.89
26.80
37.31
44.63
49.04
50.81
50.30
48.04
44.82
41.46
38.67
36.78
35.78
35.36
35.10
34.59
33.60
32.13
30.38
28.58
26.91
25.35
23.70
21.68
19.13
16.07
12.68
9.18
5.65
2.01
-1.93
-6.30
-11.06
-16.02
-20.91
-25.58
-30.04
-34.44
-38.95
-43.65
-48.50
-53.37
-58.17
-62.99
-68.13
-74.02
-81.14
-89.86
-100.24
-111.79
-123.41
-133.38
-139.62
-140.18
-133.80
-120.27
-100.56
-76.43
-49.99
-23.19
2.45
25.84
46.23
63.15
76.35
85.93
92.31
96.22
98.52
99.94
100.99
101.86
102.46
102.53
101.81
100.16
97.59
94.25
90.28
85.71
80.46
74.40
67.41
59.59
51.17
42.53
34.11
26.32
19.46
13.67
8.84
4.61
0.41
-4.29
-9.81
-16.09
-22.80
-29.46
-35.68
-41.29
-46.31
-50.97
-55.62
-60.71
-66.65
-73.52
-80.77
-87.11
-90.59
-89.20
-81.56
-67.51
-48.27
-26.15
-3.82
16.37
32.93
45.29
53.66
58.62
60.80
60.76
58.98
56.03
52.60
49.53
47.54
47.02
47.81
49.29
50.67
51.33
51.08
50.16
48.92
47.60
46.11
44.09
41.13
37.05
31.98
26.31
20.52
15.01
9.93
5.27
0.83
-3.62
-8.29
-13.34
-18.78
-24.49
-30.16
-35.40
-39.87
-43.42
-46.25
-48.87
-51.98
-56.25
-62.02
-69.09
-76.59
-83.10
-86.88
-86.33
-80.41
-69.07
-53.21
-34.58
-15.25
2.85
18.41
30.73
39.69
45.45
48.25
48.38
46.31
42.79
38.77
35.24
32.94
32.13
32.60
33.76
35.02
35.97
36.53
36.81
36.97
37.00
36.62
35.41
33.02
29.33
24.59
19.30
14.00
9.07
4.60
0.39
-3.89
-8.54
-13.63
-19.05
-24.50
-29.61
-34.09
-37.83
-40.92
-43.70
-46.69
-50.47
-55.51
-61.90
-69.11
-75.93
-80.62
-81.34
-76.74
-66.41
-51.15
-32.72
-13.31
5.03
20.85
33.39
42.47
48.23
50.87
50.75
48.32
44.33
39.74
35.54
32.53
31.07
31.01
31.84
32.95
33.88
34.49
34.83
35.01
34.89
34.10
32.15
28.74
23.98
18.46
12.97
8.17
4.29
1.04
-2.17
-5.94
-10.56
-15.89
-21.46
-26.68
-31.15
-34.78
-37.86
-40.95
-44.76
-49.93
-56.73
-64.81
-73.03
-79.57
-82.33
-79.56
-70.54
-55.86
-37.32
-17.38
1.65
18.15
31.34
41.15
47.70
51.13
51.60
49.52
45.76
41.54
38.07
36.13
35.81
36.62
37.81
38.82
39.40
39.66
39.72
39.66
39.36
38.61
37.19
34.91
31.67
27.49
22.54
17.21
11.99
7.30
3.30
-0.19
-3.63
-7.52
-12.15
-17.45
-23.06
-28.53
-33.50
-37.85
-41.69
-45.34
-49.19
-53.72
-59.37
-66.32
-74.23
-82.00
-87.83
-89.60
-85.60
-75.16
-59.06
-39.27
-18.33
1.46
18.58
32.36
42.76
49.96
54.11
55.43
54.35
51.69
48.53
45.84
44.27
43.86
44.27
45.00
45.65
46.08
46.26
46.19
45.78
44.89
43.35
41.13
38.28
34.91
31.13
27.05
22.77
18.40
14.11
10.07
6.37
3.00
-0.20
-3.47
-7.06
-11.13
-15.62
-20.34
-24.98
-29.29
-33.18
-36.70
-40.07
-43.54
-47.42
-52.04
-57.73
-64.61
-72.26
-79.59
-84.81
-85.92
-81.32
-70.46
-54.15
-34.31
-13.43
6.15
22.76
35.63
44.72
50.47
53.48
54.26
53.31
51.13
48.28
45.44
43.26
42.19
42.32
43.34
44.66
45.65
45.90
45.32
44.09
42.43
40.47
38.11
35.16
31.45
27.01
22.07
17.00
12.15
7.69
3.67
-0.01
-3.43
-6.67
-9.81
-13.01
-16.48
-20.43
-24.90
-29.73
-34.55
-39.00
-42.87
-46.15
-49.06
-51.97
-55.31
-59.54
-64.96
-71.46
-78.26
-83.84
-86.19
-83.42
-74.51
-59.78
-40.90
-20.32
-0.49
16.72
30.41
40.42
47.05
50.67
51.59
50.21
47.06
42.96
38.89
35.74
34.03
33.75
34.45
35.47
36.27
36.65
36.70
36.61
36.41
35.96
34.90
32.95
29.98
26.12
21.65
16.95
12.35
8.13
4.47
1.39
-1.35
-4.21
-7.73
-12.32
-18.01
-24.36
-30.65
-36.15
-40.45
-43.64
-46.26
-49.09
-52.92
-58.28
-65.17
-72.99
-80.41
-85.61
-86.59
-81.85
-70.86
-54.43
-34.47
-13.47
6.27
23.17
36.50
46.22
52.58
55.81
56.11
53.82
49.62
44.53
39.72
36.21
34.51
34.54
35.75
37.33
38.60
39.14
38.83
37.83
36.37
34.68
32.87
30.86
28.52
25.63
22.14
18.14
13.92
9.84
6.15
2.91
-0.06
-3.15
-6.70
-10.88
-15.61
-20.56
-25.29
-29.44
-32.87
-35.77
-38.53
-41.61
-45.45
-50.34
-56.49
-63.87
-72.06
-79.95
-85.79
-87.44
-83.12
-72.11
-55.20
-34.57
-13.02
6.91
23.61
36.51
45.74
51.67
54.54
54.59
52.20
48.08
43.27
38.85
35.68
34.17
34.22
35.34
36.86
38.16
38.81
38.74
38.12
37.20
36.14
34.84
32.95
30.07
26.02
20.96
15.47
10.28
5.94
2.61
-0.03
-2.55
-5.56
-9.38
-13.99
-19.07
-24.18
-28.92
-33.04
-36.49
-39.40
-42.07
-44.94
-48.65
-53.76
-60.59
-68.79
-77.15
-83.68
-86.16
-82.86
-73.15
-57.84
-38.78
-18.33
1.39
18.84
33.15
43.85
50.74
53.87
53.59
50.74
46.48
42.10
38.63
36.59
35.97
36.37
37.22
38.01
38.43
38.41
38.06
37.50
36.78
35.78
34.21
31.76
28.26
23.88
19.07
14.46
10.48
7.23
4.30
1.07
-3.04
-8.15
-13.95
-19.79
-25.05
-29.43
-33.09
-36.46
-40.03
-44.20
-49.20
-55.11
-61.71
-68.38
-73.91
-76.67
-75.00
-67.84
-55.22
-38.37
-19.36
-0.44
16.52
30.37
40.63
47.24
50.34
50.21
47.37
42.59
36.96
31.64
27.57
25.22
24.54
25.03
26.07
27.10
27.76
27.90
27.40
26.13
23.97
20.90
17.11
12.97
8.90
5.16
1.74
-1.57
-5.07
-8.94
-13.20
-17.72
-22.29
-26.69
-30.74
-34.33
-37.45
-40.41
-43.75
-48.23
-54.37
-62.03
-70.12
-76.69
-79.46
-76.61
-67.48
-52.79
-34.41
-14.69
4.17
20.66
33.95
43.81
50.25
53.44
53.68
51.49
47.72
43.39
39.49
36.71
35.26
34.94
35.26
35.78
36.20
36.42
36.39
36.01
35.06
33.25
30.40
26.49
21.76
16.62
11.51
6.71
2.31
-1.82
-5.99
-10.49
-15.48
-20.86
-26.35
-31.54
-36.16
-40.16
-43.79
-47.46
-51.73
-57.06
-63.64
-71.16
-78.57
-84.23
-86.15
-82.61
-72.75
-57.05
-37.29
-16.00
4.24
21.55
35.06
44.75
51.04
54.41
55.26
53.94
51.06
47.46
44.13
41.86
40.95
41.12
41.70
42.01
41.74
41.04
40.28
39.80
39.60
39.28
38.23
35.96
32.33
27.58
22.27
16.92
11.93
7.38
3.11
-1.17
-5.77
-10.86
-16.43
-22.23
-27.90
-33.03
-37.37
-40.98
-44.22
-47.70
-52.13
-58.05
-65.56
-74.14
-82.48
-88.69
-90.72
-86.91
-76.62
-60.47
-40.23
-18.29
2.93
21.59
36.60
47.60
54.68
58.20
58.60
56.51
52.76
48.34
44.27
41.31
39.79
39.54
39.99
40.54
40.74
40.51
40.02
39.44
38.82
37.93
36.39
33.87
30.29
25.84
20.95
16.08
11.57
7.52
3.85
0.31
-3.38
-7.44
-11.92
-16.67
-21.40
-25.77
-29.53
-32.70
-35.55
-38.54
-42.25
-47.21
-53.73
-61.66
-70.22
-77.92
-82.73
-82.67
-76.40
-63.73
-45.86
-24.94
-3.46
16.37
33.03
45.72
54.19
58.57
59.27
56.97
52.68
47.53
42.65
38.83
36.46
35.43
35.29
35.44
35.36
34.82
33.83
32.58
31.13
29.29
26.62
22.67
17.28
10.76
3.83
-2.70
-8.34
-13.02
-17.10
-21.16
-25.61
-30.60
-35.99
-41.45
-46.65
-51.27
-55.14
-58.24
-60.86
-63.65
-67.40
-72.75
-79.66
-87.05
-92.88
-94.67
-90.36
-79.15
-61.82
-40.52
-18.03
3.11
21.18
35.42
45.76
52.46
55.83
56.20
54.02
50.00
45.05
40.18
36.31
34.13
33.87
35.37
38.14
41.47
44.68
47.26
48.91
49.53
49.09
47.58
45.13
42.09
39.07
36.81
35.77
35.79
36.07
35.45
33.02
28.58
22.78
16.67
11.19
6.76
3.09
-0.46
-4.58
-9.79
-16.44
-24.76
-34.84
-46.31
-58.09
-68.38
-74.98
-75.99
-70.50
-58.94
-42.94
-24.78
-6.80
9.12
21.75
30.40
34.85
35.23
32.13
26.59
20.09
14.29
10.60
9.77
11.66
15.31
19.37
22.57
24.18
24.18
23.06
21.45
19.76
18.03
15.99
13.35
9.97
5.90
1.34
-3.56
-8.63
-13.47
-17.24
-18.73
-16.84
-11.42
-3.80
3.28
6.50
3.23
-7.31
-23.64
-42.44
-59.71
-71.97
-77.15
-74.83
-66.02
-52.67
-37.11
-21.54
-7.61
3.72
12.17
17.83
20.88
21.46
19.86
16.66
12.89
9.84
8.57
9.48
12.08
15.25
17.79
18.94
18.73
17.76
16.81
16.34
16.28
16.03
14.89
12.36
8.40
3.38
-2.11
-7.50
-12.44
-16.84
-20.83
-24.65
-28.57
-32.91
-38.04
-44.34
-51.96
-60.54
-68.97
-75.48
-77.96
-74.65
-64.80
-49.03
-29.20
-7.93
12.19
29.26
42.38
51.55
57.28
60.20
60.80
59.36
56.20
51.83
46.98
42.54
39.23
37.40
36.83
36.94
36.95
36.33
34.86
32.71
30.22
27.66
25.01
22.01
18.28
13.55
7.82
1.37
-5.37
-11.98
-18.18
-23.85
-29.06
-33.91
-38.60
-43.41
-48.75
-55.07
-62.59
-70.99
-79.08
-84.94
-86.36
-81.50
-69.69
-51.70
-29.65
-6.36
15.49
33.97
48.21
58.21
64.49
67.66
68.22
66.64
63.44
59.33
55.13
51.58
49.10
47.70
47.04
46.63
46.04
45.00
43.46
41.37
38.74
35.47
31.57
27.11
22.28
17.32
12.34
7.35
2.17
-3.35
-9.30
-15.54
-21.78
-27.72
-33.14
-38.07
-42.70
-47.41
-52.64
-58.81
-66.15
-74.47
-82.86
-89.69
-92.82
-90.21
-80.72
-64.59
-43.62
-20.61
1.49
20.41
35.02
45.26
51.66
54.89
55.45
53.75
50.23
45.61
40.85
36.82
34.11
32.82
32.56
32.76
32.93
32.81
32.36
31.60
30.47
28.82
26.53
23.58
20.06
16.04
11.47
6.23
0.21
-6.51
-13.53
-20.26
-26.20
-31.17
-35.38
-39.33
-43.54
-48.43
-54.25
-61.10
-68.85
-76.94
-84.16
-88.66
-88.37
-81.71
-68.31
-49.31
-27.13
-4.68
15.54
32.06
44.47
53.08
58.43
60.86
60.60
57.95
53.53
48.30
43.31
39.36
36.81
35.50
34.95
34.61
34.10
33.22
31.94
30.33
28.43
26.19
23.52
20.20
16.01
10.76
4.50
-2.48
-9.62
-16.33
-22.17
-27.05
-31.27
-35.35
-39.88
-45.31
-51.90
-59.63
-68.17
-76.67
-83.69
-87.36
-85.82
-77.82
-63.35
-43.80
-21.58
0.57
20.40
36.57
48.70
57.04
62.03
64.06
63.44
60.62
56.26
51.27
46.61
42.99
40.71
39.58
39.09
38.64
37.78
36.35
34.38
32.06
29.48
26.69
23.63
20.22
16.39
12.04
7.08
1.43
-4.86
-11.59
-18.44
-25.00
-30.94
-36.07
-40.46
-44.36
-48.21
-52.58
-58.01
-64.82
-72.68
-80.48
-86.27
-87.83
-83.34
-72.09
-54.87
-33.69
-11.25
9.96
28.13
42.41
52.64
59.07
62.07
62.06
59.61
55.53
50.81
46.43
43.10
41.06
40.09
39.71
39.40
38.90
38.12
37.14
35.97
34.47
32.41
29.56
25.86
21.46
16.66
11.79
7.04
2.43
-2.18
-6.99
-12.14
-17.68
-23.42
-29.10
-34.35
-38.92
-42.77
-46.23
-49.92
-54.63
-60.94
-68.78
-77.17
-84.23
-87.67
-85.47
-76.67
-61.75
-42.43
-21.16
-0.28
18.46
34.07
46.13
54.47
59.03
59.93
57.67
53.20
47.83
42.88
39.29
37.38
36.92
37.29
37.82
38.04
37.77
37.07
36.06
34.84
33.35
31.39
28.76
25.34
21.21
16.68
12.13
7.87
4.01
0.36
-3.38
-7.54
-12.24
-17.40
-22.72
-27.82
-32.38
-36.23
-39.45
-42.36
-45.47
-49.43
-54.83
-61.87
-70.04
-77.93
-83.44
-84.29
-78.83
-66.71
-49.02
-28.04
-6.44
13.46
30.16
43.04
52.05
57.38
59.27
58.11
54.55
49.56
44.27
39.62
36.19
34.11
33.09
32.69
32.47
32.08
31.38
30.36
29.18
27.97
26.74
25.27
23.15
19.96
15.52
10.08
4.30
-1.02
-5.35
-8.64
-11.32
-14.08
-17.51
-21.85
-26.91
-32.26
-37.44
-42.12
-46.24
-49.91
-53.43
-57.12
-61.34
-66.35
-72.12
-78.04
-82.85
-84.76
-81.97
-73.27
-58.66
-39.44
-17.93
3.36
22.26
37.48
48.49
55.34
58.31
57.85
54.63
49.61
43.97
38.90
35.27
33.45
33.24
34.08
35.32
36.44
37.19
37.53
37.48
37.03
35.99
34.11
31.17
27.15
22.29
17.03
11.87
7.21
3.20
-0.30
-3.60
-7.07
-10.95
-15.27
-19.79
-24.09
-27.80
-30.78
-33.19
-35.57
-38.61
-42.97
-48.94
-56.30
-64.06
-70.60
-73.94
-72.29
-64.64
-51.14
-33.24
-13.24
6.29
23.24
36.34
45.19
50.05
51.46
50.03
46.39
41.26
35.47
29.91
25.36
22.30
20.80
20.58
21.18
22.13
23.15
24.03
24.66
24.85
24.33
22.86
20.32
16.86
12.82
8.61
4.50
0.47
-3.72
-8.32
-13.37
-18.58
-23.50
-27.71
-31.04
-33.72
-36.24
-39.18
-43.07
-48.19
-54.45
-61.25
-67.41
-71.27
-71.10
-65.61
-54.52
-38.78
-20.31
-1.39
15.95
30.35
41.19
48.33
51.92
52.18
49.55
44.71
38.65
32.41
26.96
22.95
20.63
19.92
20.46
21.71
23.10
24.10
24.41
23.95
22.90
21.48
19.81
17.77
15.02
11.20
6.16
0.14
-6.27
-12.39
-17.72
-22.14
-25.89
-29.48
-33.36
-37.89
-43.20
-49.35
-56.17
-63.18
-69.37
-73.21
-73.04
-67.56
-56.51
-40.84
-22.52
-3.89
13.05
27.01
37.44
44.23
47.45
47.27
44.06
38.56
31.87
25.21
19.58
15.54
13.09
11.87
11.35
11.10
10.89
10.64
10.35
9.93
9.23
7.92
5.63
2.08
-2.75
-8.55
-14.71
-20.45
-25.17
-28.62
-31.10
-33.38
-36.50
-41.32
-48.23
-56.72
-65.40
-72.23
-75.05
-72.25
-63.24
-48.69
-30.28
-10.25
9.14
26.09
39.45
48.79
54.14
55.93
54.76
51.33
46.48
41.08
36.03
32.05
29.54
28.43
28.23
28.27
27.98
27.14
25.91
24.61
23.39
22.04
19.97
16.53
11.33
4.56
-3.08
-10.65
-17.35
-22.84
-27.29
-31.28
-35.52
-40.66
-47.14
-54.98
-63.63
-71.75
-77.37
-78.38
-73.17
-61.39
-44.16
-23.77
-2.95
15.99
31.70
43.69
52.09
57.10
58.87
57.61
53.83
48.53
42.95
38.28
35.23
33.89
33.75
34.04
34.09
33.55
32.43
30.90
29.13
27.06
24.37
20.68
15.66
9.26
1.72
-6.42
-14.53
-21.99
-28.43
-33.85
-38.63
-43.45
-49.13
-56.25
-64.82
-73.95
-81.99
-86.85
-86.65
-80.29
-67.82
-50.37
-29.83
-8.36
12.04
29.78
43.81
53.55
58.87
60.13
58.11
53.93
48.88
44.10
40.34
37.90
36.63
36.11
35.86
35.46
34.73
33.54
31.88
29.64
26.61
22.51
17.16
10.60
3.22
-4.34
-11.33
-17.26
-22.11
-26.36
-30.82
-36.34
-43.48
-52.19
-61.74
-70.68
-77.06
-78.90
-74.66
-63.83
-47.15
-26.55
-4.60
16.14
33.79
47.29
56.39
61.31
62.50
60.59
56.42
51.09
45.80
41.61
39.04
37.97
37.76
37.54
36.71
35.11
32.99
30.72
28.47
26.03
22.90
18.60
12.92
6.13
-1.15
-8.21
-14.53
-19.95
-24.68
-29.20
-34.12
-40.06
-47.46
-56.28
-65.74
-74.18
-79.22
-78.58
-70.81
-55.99
-35.81
-13.06
9.32
29.07
44.91
56.45
63.76
67.06
66.64
63.14
57.61
51.47
46.11
42.48
40.86
40.84
41.67
42.60
43.08
42.86
41.84
39.94
37.08
33.28
28.71
23.73
18.81
14.30
10.26
6.38
2.18
-2.78
-8.64
-15.15
-21.84
-28.15
-33.68
-38.34
-42.30
-46.00
-50.07
-55.26
-62.12
-70.70
-80.13
-88.51
-93.31
-92.11
-83.51
-67.68
-46.40
-22.42
1.40
22.74
40.26
53.40
62.18
66.86
67.94
66.15
62.50
58.13
54.12
51.25
49.90
49.99
51.11
52.66
53.98
54.52
53.96
52.31
49.83
46.93
43.92
40.87
37.54
33.62
28.92
23.56
17.95
12.58
7.80
3.61
-0.29
-4.31
-8.76
-13.72
-19.08
-24.59
-29.98
-35.06
-39.71
-43.89
-47.70
-51.45
-55.60
-60.79
-67.54
-75.96
-85.40
-94.31
-100.45
-101.44
-95.52
-82.19
-62.51
-38.80
-13.96
9.31
29.12
44.53
55.37
61.92
64.60
63.93
60.64
55.67
50.19
45.30
41.80
39.94
39.46
39.70
39.96
39.78
39.03
37.88
36.59
35.23
33.58
31.20
27.71
22.99
17.35
11.40
5.83
1.05
-2.92
-6.45
-10.09
-14.30
-19.27
-24.84
-30.64
-36.16
-40.94
-44.74
-47.65
-50.12
-52.88
-56.79
-62.56
-70.35
-79.44
-88.21
-94.29
-95.26
-89.34
-76.09
-56.65
-33.40
-9.22
13.25
32.25
46.97
57.35
63.67
66.35
65.89
62.96
58.50
53.59
49.27
46.29
44.92
44.92
45.68
46.44
46.64
46.02
44.72
43.09
41.42
39.73
37.65
34.63
30.25
24.52
17.95
11.35
5.50
0.76
-3.02
-6.41
-10.11
-14.59
-19.93
-25.79
-31.62
-36.92
-41.37
-44.95
-47.93
-50.75
-54.05
-58.48
-64.62
-72.61
-81.85
-90.81
-97.17
-98.41
-92.71
-79.61
-60.25
-37.04
-12.88
9.71
29.05
44.39
55.62
62.89
66.47
66.71
64.21
59.91
54.99
50.62
47.66
46.44
46.66
47.59
48.38
48.41
47.46
45.74
43.62
41.37
39.05
36.43
33.24
29.27
24.52
19.20
13.66
8.27
3.35
-0.94
-4.65
-8.07
-11.59
-15.61
-20.38
-25.80
-31.51
-36.98
-41.78
-45.74
-49.07
-52.27
-56.05
-61.12
-67.93
-76.38
-85.62
-94.00
-99.37
-99.63
-93.39
-80.45
-62.00
-40.21
-17.70
3.15
20.68
33.99
42.85
47.47
48.31
46.04
41.60
36.17
31.04
27.36
25.87
26.64
29.17
32.56
35.84
38.37
39.95
40.73
41.02
40.97
40.45
39.08
36.46
32.39
27.10
21.13
15.17
9.75
4.97
0.57
-3.97
-9.08
-14.84
-20.98
-26.95
-32.19
-36.37
-39.53
-42.09
-44.77
-48.47
-53.98
-61.69
-71.28
-81.44
-90.03
-94.51
-92.72
-83.52
-67.32
-45.90
-21.96
1.71
22.91
40.34
53.55
62.69
68.10
70.17
69.35
66.23
61.59
56.38
51.44
47.34
44.29
42.09
40.34
38.69
36.93
35.11
33.42
32.00
30.75
29.36
27.33
24.33
20.38
15.92
11.70
8.41
6.27
4.91
3.47
0.98
-3.21
-9.17
-16.43
-24.23
-31.77
-38.42
-43.88
-48.10
-51.35
-54.20
-57.48
-62.00
-68.16
-75.50
-82.57
-87.21
-87.18
-80.94
-68.24
-50.25
-29.19
-7.62
12.19
28.71
41.21
49.58
54.02
54.96
53.01
49.08
44.26
39.75
36.52
35.13
35.57
37.39
39.83
42.16
43.75
44.29
43.72
42.25
40.19
37.85
35.35
32.59
29.37
25.53
21.19
16.72
12.56
9.00
5.99
3.16
-0.01
-3.83
-8.24
-12.77
-16.77
-19.79
-21.74
-23.04
-24.45
-26.79
-30.72
-36.63
-44.56
-54.26
-65.02
-75.59
-84.19
-88.77
-87.59
-79.79
-65.79
-47.28
-26.66
-6.37
11.70
26.44
37.45
44.73
48.44
48.92
46.68
42.50
37.31
32.08
27.57
24.30
22.54
22.31
23.51
25.87
29.01
32.35
35.26
37.14
37.53
36.12
32.86
27.90
21.68
14.91
8.45
3.06
-0.80
-3.29
-5.11
-7.23
-10.51
-15.40
-21.76
-29.00
-36.40
-43.36
-49.59
-55.08
-60.02
-64.69
-69.40
-74.28
-79.17
-83.38
-85.69
-84.59
-78.81
-67.86
-52.31
-33.76
-14.27
4.26
20.56
34.04
44.59
52.15
56.62
57.98
56.44
52.68
47.70
42.62
38.29
35.17
33.36
32.76
33.23
34.58
36.52
38.57
40.01
40.15
38.48
34.90
29.74
23.64
17.28
11.16
5.43
-0.01
-5.37
-10.76
-16.08
-21.06
-25.40
-28.90
-31.58
-33.73
-35.85
-38.54
-42.53
-48.40
-56.42
-66.14
-76.23
-84.58
-88.76
-86.79
-77.79
-62.32
-42.28
-20.22
1.27
20.18
35.39
46.52
53.76
57.59
58.58
57.32
54.45
50.68
46.75
43.37
40.98
39.69
39.24
39.15
38.96
38.45
37.67
36.83
36.05
35.19
33.86
31.60
28.10
23.43
18.03
12.53
7.48
3.12
-0.70
-4.42
-8.50
-13.22
-18.52
-24.08
-29.53
-34.59
-39.21
-43.56
-47.99
-52.90
-58.76
-65.84
-73.94
-82.20
-88.92
-91.97
-89.37
-80.08
-64.46
-44.22
-21.89
0.01
19.55
35.71
48.22
57.16
62.67
64.95
64.24
61.12
56.54
51.65
47.53
44.89
43.84
43.93
44.45
44.74
44.46
43.61
42.36
40.89
39.15
36.91
33.92
30.06
25.43
20.37
15.31
10.66
6.70
3.46
0.70
-1.99
-5.10
-8.92
-13.44
-18.34
-23.15
-27.43
-31.02
-34.05
-36.88
-40.02
-44.08
-49.65
-57.07
-66.14
-75.81
-84.18
-88.87
-87.77
-79.80
-65.28
-45.93
-24.22
-2.71
16.63
32.60
44.72
52.96
57.50
58.68
57.01
53.29
48.51
43.73
39.83
37.22
35.85
35.24
34.85
34.23
33.31
32.23
31.26
30.58
30.11
29.57
28.51
26.49
23.27
18.88
13.70
8.38
3.59
-0.30
-3.34
-6.08
-9.19
-13.21
-18.15
-23.63
-29.07
-33.97
-38.18
-41.84
-45.21
-48.59
-52.29
-56.74
-62.33
-69.17
-76.68
-83.40
-87.19
-85.91
-78.21
-64.19
-45.35
-24.14
-3.08
15.83
31.45
43.29
51.27
55.47
56.14
53.85
49.55
44.51
39.92
36.66
35.00
34.68
35.10
35.62
35.84
35.60
34.97
34.08
32.97
31.54
29.56
26.78
23.07
18.54
13.54
8.57
4.09
0.27
-3.07
-6.38
-10.13
-14.62
-19.76
-25.11
-30.13
-34.38
-37.76
-40.54
-43.29
-46.69
-51.38
-57.72
-65.53
-73.99
-81.57
-86.31
-86.27
-80.17
-67.84
-50.38
-29.85
-8.67
10.96
27.61
40.60
49.93
55.84
58.66
58.71
56.48
52.70
48.39
44.56
41.92
40.69
40.54
40.83
40.95
40.60
39.86
38.98
38.14
37.25
35.90
33.60
29.99
25.07
19.26
13.26
7.74
3.11
-0.68
-4.06
-7.69
-12.06
-17.32
-23.17
-29.06
-34.40
-38.86
-42.51
-45.73
-49.10
-53.26
-58.73
-65.71
-73.87
-82.24
-89.18
-92.73
-91.10
-83.22
-69.22
-50.41
-28.98
-7.40
12.20
28.44
40.75
49.24
54.41
56.82
57.03
55.54
52.94
49.96
47.33
45.67
45.19
45.65
46.44
46.86
46.45
45.19
43.37
41.40
39.52
37.66
35.51
32.71
29.07
24.64
19.72
14.69
9.89
5.50
1.50
-2.28
-6.16
-10.39
-15.12
-20.23
-25.45
-30.39
-34.76
-38.55
-41.98
-45.49
-49.55
-54.62
-61.01
-68.81
-77.69
-86.71
-94.25
-98.26
-96.77
-88.63
-74.00
-54.42
-32.33
-10.29
9.66
26.41
39.62
49.42
56.02
59.61
60.46
59.08
56.34
53.24
50.67
49.20
48.91
49.50
50.44
51.22
51.48
51.05
49.93
48.22
46.08
43.65
40.99
38.11
34.89
31.21
26.95
22.14
16.95
11.71
6.78
2.39
-1.47
-5.05
-8.72
-12.79
-17.34
-22.23
-27.16
-31.89
-36.33
-40.54
-44.65
-48.76
-53.04
-57.75
-63.32
-70.12
-78.07
-86.30
-93.04
-96.05
-93.27
-83.71
-67.75
-47.18
-24.52
-2.29
17.60
34.11
46.89
56.01
61.71
64.29
64.19
62.11
58.99
55.81
53.38
52.07
51.81
52.15
52.56
52.61
52.12
51.12
49.80
48.31
46.73
45.00
42.94
40.34
37.02
32.91
28.11
22.89
17.66
12.77
8.46
4.76
1.52
-1.52
-4.65
-8.11
-12.06
-16.58
-21.60
-26.91
-32.17
-37.00
-41.20
-44.84
-48.31
-52.24
-57.25
-63.71
-71.51
-79.92
-87.61
-92.82
-93.73
-88.95
-77.94
-61.38
-40.99
-19.13
1.86
20.22
35.03
46.12
53.69
58.05
59.44
58.26
55.15
51.13
47.34
44.74
43.74
44.11
45.16
46.08
46.33
45.81
44.73
43.44
42.06
40.48
38.41
35.56
31.88
27.52
22.80
18.00
13.34
8.93
4.84
1.07
-2.41
-5.78
-9.35
-13.39
-18.11
-23.38
-28.87
-34.09
-38.65
-42.43
-45.60
-48.59
-52.00
-56.39
-62.18
-69.37
-77.31
-84.61
-89.36
-89.50
-83.62
-71.44
-54.01
-33.44
-12.23
7.46
24.27
37.66
47.60
54.27
57.85
58.58
56.92
53.69
49.92
46.66
44.62
44.00
44.50
45.52
46.47
46.98
46.91
46.28
45.16
43.57
41.45
38.76
35.49
31.63
27.22
22.37
17.25
12.13
7.32
3.11
-0.42
-3.43
-6.32
-9.56
-13.46
-18.05
-23.05
-28.00
-32.52
-36.46
-39.90
-43.17
-46.66
-50.76
-55.81
-62.00
-69.25
-76.94
-83.81
-88.10
-87.93
-81.94
-69.90
-52.86
-32.87
-12.36
6.64
22.90
35.95
45.87
52.85
57.05
58.65
57.99
55.63
52.33
48.88
45.91
43.79
42.60
42.18
42.22
42.31
42.05
41.20
39.69
37.65
35.26
32.66
29.81
26.59
22.92
18.82
14.51
10.24
6.25
2.60
-0.82
-4.19
-7.69
-11.40
-15.35
-19.46
-23.65
-27.80
-31.76
-35.43
-38.78
-41.95
-45.16
-48.79
-53.23
-58.86
-65.81
-73.78
-81.89
-88.66
-92.28
-91.01
-83.83
-70.78
-53.08
-32.78
-12.24
6.55
22.25
34.36
42.96
48.43
51.24
51.86
50.80
48.63
46.02
43.62
41.96
41.25
41.39
42.00
42.65
43.00
42.89
42.33
41.37
40.01
38.15
35.67
32.58
29.07
25.38
21.74
18.25
14.77
11.15
7.34
3.47
-0.21
-3.52
-6.50
-9.48
-12.91
-17.07
-21.95
-27.15
-32.14
-36.51
-40.18
-43.46
-46.81
-50.76
-55.68
-61.83
-69.22
-77.52
-85.78
-92.41
-95.42
-92.99
-84.16
-69.25
-49.91
-28.63
-7.95
10.24
24.96
36.06
43.91
48.98
51.65
52.28
51.26
49.16
46.67
44.53
43.26
43.08
43.79
44.93
45.98
46.58
46.63
46.27
45.69
44.97
44.01
42.56
40.39
37.40
33.71
29.60
25.41
21.37
17.52
13.80
10.04
6.17
2.23
-1.67
-5.45
-9.08
-12.69
-16.47
-20.48
-24.67
-28.84
-32.77
-36.38
-39.82
-43.48
-47.87
-53.47
-60.53
-68.83
-77.58
-85.36
-90.34
-90.72
-85.23
-73.62
-56.92
-37.13
-16.72
2.06
17.75
29.77
38.22
43.49
45.98
46.08
44.29
41.34
38.18
35.74
34.62
34.91
36.20
37.85
39.33
40.35
40.92
41.14
41.05
40.57
39.56
37.87
35.47
32.45
28.94
25.07
20.97
16.80
12.75
9.03
5.78
2.97
0.39
-2.31
-5.43
-9.14
-13.34
-17.77
-22.11
-26.12
-29.69
-32.91
-35.90
-38.93
-42.35
-46.64
-52.19
-59.11
-66.78
-73.83
-78.29
-78.16
-72.13
-60.16
-43.55
-24.52
-5.50
11.58
25.64
36.33
43.74
48.02
49.31
47.90
44.45
40.01
35.79
32.75
31.34
31.34
32.12
32.95
33.40
33.35
32.96
32.48
32.04
31.54
30.76
29.41
27.24
24.16
20.15
15.43
10.32
5.31
0.85
-2.77
-5.61
-8.05
-10.68
-14.03
-18.30
-23.25
-28.30
-32.86
-36.58
-39.53
-42.16
-45.06
-48.84
-53.91
-60.34
-67.74
-75.10
-80.89
-83.29
-80.75
-72.50
-58.92
-41.50
-22.31
-3.47
13.36
27.19
37.53
44.30
47.67
48.02
46.09
42.83
39.30
36.35
34.50
33.83
34.11
34.93
35.92
36.80
37.40
37.60
37.32
36.50
35.12
33.12
30.49
27.16
23.13
18.50
13.51
8.51
3.84
-0.32
-4.12
-7.92
-12.20
-17.24
-22.98
-28.99
-34.69
-39.59
-43.55
-46.81
-49.94
-53.65
-58.60
-65.12
-73.01
-81.27
-88.25
-91.86
-90.19
-82.16
-67.96
-49.09
-27.89
-6.83
12.13
27.85
39.99
48.64
54.11
56.72
56.85
55.04
52.02
48.66
45.76
43.90
43.28
43.72
44.79
46.02
47.00
47.52
47.55
47.05
46.02
44.33
41.87
38.56
34.43
29.59
24.29
18.84
13.62
8.95
5.01
1.66
-1.54
-5.16
-9.63
-15.04
-21.00
-26.83
-31.94
-36.03
-39.28
-42.17
-45.35
-49.44
-54.91
-62.02
-70.56
-79.62
-87.51
-91.99
-90.95
-83.15
-68.75
-49.42
-27.73
-6.36
12.64
28.25
40.24
48.83
54.30
56.85
56.75
54.50
50.99
47.28
44.35
42.79
42.66
43.56
44.89
46.07
46.76
46.85
46.41
45.53
44.28
42.65
40.52
37.75
34.18
29.79
24.67
19.12
13.56
8.47
4.12
0.54
-2.59
-5.78
-9.55
-14.17
-19.56
-25.27
-30.72
-35.40
-39.13
-42.10
-44.88
-48.20
-52.74
-59.00
-66.98
-76.07
-84.93
-91.60
-93.92
-90.14
-79.54
-62.79
-41.82
-19.32
2.10
20.45
34.70
44.71
50.92
53.98
54.62
53.50
51.29
48.64
46.13
44.21
43.15
42.95
43.41
44.16
44.82
45.08
44.80
44.01
42.80
41.26
39.32
36.83
33.56
29.41
24.49
19.17
13.91
9.15
5.10
1.71
-1.27
-4.25
-7.55
-11.37
-15.74
-20.51
-25.45
-30.29
-34.83
-38.96
-42.80
-46.66
-51.01
-56.43
-63.37
-71.87
-81.37
-90.58
-97.60
-100.36
-97.08
-87.02
-70.63
-49.61
-26.46
-3.79
16.28
32.45
44.26
51.89
55.85
56.70
55.10
51.80
47.67
43.68
40.67
39.19
39.27
40.54
42.32
43.96
45.02
45.37
45.13
44.45
43.37
41.78
39.45
36.17
31.90
26.83
21.36
16.03
11.26
7.26
3.95
0.96
-2.15
-5.77
-9.99
-14.63
-19.24
-23.35
-26.61
-29.02
-30.90
-32.85
-35.62
-39.90
-46.04
-53.85
-62.41
-70.08
-74.88
-74.93
-69.06
-57.19
-40.39
-20.58
-0.03
19.25
35.83
48.95
58.42
64.41
67.29
67.57
65.84
62.76
59.00
55.18
51.68
48.69
46.12
43.67
41.02
37.99
34.61
31.15
27.92
25.14
22.74
20.45
17.95
15.04
11.74
8.29
4.98
1.98
-0.79
-3.53
-6.57
-10.15
-14.37
-19.15
-24.26
-29.36
-34.10
-38.25
-41.76
-44.82
-47.87
-51.48
-56.17
-62.09
-68.82
-75.27
-79.78
-80.63
-76.53
-67.09
-53.03
-35.97
-17.99
-1.07
13.32
24.31
31.62
35.29
35.62
33.04
28.16
21.80
14.89
8.35
2.94
-0.87
-2.92
-3.32
-2.39
-0.60
1.50
3.37
4.46
4.37
2.80
-0.37
-5.08
-11.13
-18.14
-25.53
-32.60
-38.62
-42.92
-45.12
-45.18
-43.46
-40.69
-37.86
-36.06
-36.37
-39.64
-46.28
-55.99
-67.57
-78.87
-87.05
-89.24
-83.34
-68.84
-47.17
-21.35
4.80
27.77
45.23
56.32
61.51
62.08
59.69
56.06
52.91
51.69
53.39
58.25
65.58
73.89
81.17
85.42
85.11
79.53
68.95
54.55
38.15
21.75
7.17
-4.42
-12.55
-17.44
-19.72
-20.15
-19.50
-18.53
-18.07
-19.02
-22.28
-28.58
-38.23
-51.15
-66.80
-84.31
-102.41
-119.25
-132.39
-138.93
-136.19
-122.50
-98.05
-65.20
-28.07
8.44
39.96
63.65
78.59
85.59
86.54
83.68
79.10
74.51
71.27
70.41
72.59
77.88
85.56
94.02
101.01
104.23
102.12
94.44
82.42
68.22
54.17
41.89
31.92
24.05
17.81
13.11
10.37
10.11
12.35
16.20
19.89
21.33
18.82
11.61
-0.07
-15.16
-32.17
-49.25
-64.30
-75.06
-79.37
-75.70
-63.65
-44.20
-19.61
7.08
32.67
54.40
70.32
79.46
81.86
78.36
70.42
59.80
48.19
37.00
27.13
19.01
12.70
8.09
5.08
3.73
4.12
6.17
9.44
13.05
15.84
16.74
15.04
10.62
3.86
-4.57
-13.97
-23.69
-33.18
-41.96
-49.58
-55.55
-59.30
-60.12
-57.21
-49.93
-38.12
-22.46
-4.46
13.80
30.27
43.39
52.34
57.02
57.77
55.22
50.23
43.96
37.71
32.73
29.81
28.96
29.40
29.91
29.33
27.06
23.29
18.79
14.44
10.65
6.97
2.27
-4.75
-14.60
-26.43
-37.98
-46.30
-48.93
-44.96
-35.42
-22.94
-10.69
-1.37
3.56
4.04
1.13
-3.50
-8.05
-10.94
-11.08
-8.03
-2.00
6.21
15.38
24.16
31.31
35.83
37.14
35.07
30.00
22.85
14.93
7.75
2.61
0.23
0.62
3.09
6.57
10.01
12.70
14.34
14.92
14.50
13.04
10.42
6.62
1.86
-3.42
-8.73
-13.76
-18.62
-23.75
-29.73
-36.87
-44.97
-53.19
-60.16
-64.37
-64.58
-60.24
-51.62
-39.90
-26.77
-14.03
-3.13
5.07
10.33
12.83
12.88
10.81
6.92
1.69
-4.17
-9.70
-13.91
-16.14
-16.26
-14.77
-12.55
-10.52
-9.33
-9.16
-9.87
-11.17
-12.84
-14.90
-17.48
-20.68
-24.55
-29.08
-34.33
-40.42
-47.27
-54.34
-60.43
-63.78
-62.66
-56.02
-44.03
-28.04
-10.26
7.06
22.14
33.99
42.29
47.13
48.70
47.30
43.37
37.55
30.73
23.93
18.00
13.51
10.54
8.70
7.37
5.86
3.72
0.87
-2.47
-5.92
-9.20
-12.25
-15.25
-18.56
-22.53
-27.41
-33.29
-40.13
-47.62
-55.10
-61.48
-65.31
-65.09
-59.78
-49.22
-34.41
-17.26
-0.06
15.19
27.33
36.08
41.75
44.83
45.65
44.33
40.99
36.07
30.35
24.86
20.46
17.59
16.11
15.45
14.88
13.78
11.72
8.54
4.22
-1.06
-7.01
-13.25
-19.40
-25.28
-30.97
-36.81
-43.19
-50.33
-58.00
-65.32
-70.86
-73.00
-70.31
-62.06
-48.52
-30.98
-11.37
8.12
25.60
39.82
50.22
56.81
59.94
60.09
57.85
53.84
48.74
43.22
37.94
33.42
30.03
27.83
26.64
25.93
25.02
23.24
20.19
15.87
10.65
5.06
-0.43
-5.70
-10.81
-15.94
-21.23
-26.81
-32.93
-39.96
-48.24
-57.58
-66.94
-74.40
-77.71
-75.05
-65.85
-50.98
-32.46
-12.74
6.00
22.27
35.28
44.78
50.87
53.90
54.45
53.33
51.34
49.20
47.37
46.07
45.22
44.63
43.97
42.83
40.82
37.70
33.57
28.86
24.20
20.06
16.56
13.33
9.64
4.85
-1.26
-8.32
-15.48
-21.86
-26.87
-30.54
-33.43
-36.37
-40.19
-45.47
-52.43
-60.77
-69.69
-77.81
-83.27
-84.20
-79.21
-67.97
-51.41
-31.52
-10.76
8.68
25.36
38.65
48.48
55.02
58.47
59.10
57.46
54.32
50.67
47.38
44.99
43.57
42.87
42.51
42.20
41.77
41.20
40.46
39.43
37.96
35.86
32.97
29.23
24.76
19.84
14.90
10.38
6.53
3.28
0.23
-3.26
-7.74
-13.40
-19.94
-26.70
-32.87
-37.90
-41.66
-44.56
-47.36
-50.91
-55.90
-62.53
-70.36
-78.19
-84.30
-86.71
-83.82
-74.87
-60.29
-41.64
-21.14
-1.09
16.76
31.37
42.47
50.17
54.80
56.69
56.27
54.15
51.11
48.02
45.61
44.25
43.93
44.27
44.77
44.99
44.72
43.91
42.62
40.89
38.70
35.98
32.70
28.89
24.67
20.25
15.81
11.54
7.56
3.97
0.75
-2.29
-5.44
-9.09
-13.43
-18.40
-23.63
-28.59
-32.87
-36.37
-39.34
-42.23
-45.57
-49.81
-55.28
-62.11
-70.06
-78.34
-85.52
-89.69
-89.01
-82.35
-69.80
-52.68
-33.14
-13.47
4.52
19.80
31.98
41.04
47.09
50.28
50.91
49.53
46.97
44.14
41.82
40.47
40.21
40.83
41.96
43.15
44.02
44.26
43.71
42.38
40.41
37.98
35.24
32.26
28.99
25.35
21.36
17.12
12.88
8.89
5.32
2.11
-0.98
-4.31
-8.19
-12.70
-17.64
-22.66
-27.37
-31.53
-35.12
-38.30
-41.39
-44.79
-48.99
-54.41
-61.19
-68.94
-76.53
-82.19
-84.04
-80.63
-71.48
-57.29
-39.66
-20.59
-1.94
14.85
28.86
39.60
46.86
50.73
51.63
50.27
47.63
44.71
42.31
40.87
40.41
40.66
41.20
41.68
41.87
41.68
41.11
40.14
38.79
37.02
34.84
32.29
29.46
26.46
23.41
20.43
17.53
14.65
11.64
8.39
4.91
1.36
-1.98
-4.84
-7.14
-9.09
-11.09
-13.58
-16.83
-20.77
-25.03
-29.17
-32.80
-35.81
-38.37
-40.93
-44.04
-48.24
-53.89
-60.98
-68.95
-76.59
-82.16
-83.72
-79.77
-69.74
-54.37
-35.50
-15.58
3.08
18.83
30.91
39.30
44.45
46.92
47.32
46.28
44.47
42.61
41.28
40.82
41.16
41.95
42.64
42.75
42.14
40.95
39.59
38.45
37.66
37.06
36.19
34.60
32.06
28.73
25.09
21.71
18.97
16.90
15.14
13.16
10.54
7.14
3.20
-0.86
-4.60
-7.76
-10.43
-12.91
-15.61
-18.83
-22.69
-27.05
-31.61
-36.05
-40.15
-43.82
-47.16
-50.42
-54.00
-58.38
-63.92
-70.62
-77.85
-84.23
-87.92
-87.09
-80.61
-68.49
-51.98
-33.13
-14.16
3.15
17.73
29.24
37.71
43.33
46.28
46.87
45.65
43.43
41.11
39.43
38.69
38.69
38.93
38.91
38.38
37.53
36.71
36.28
36.29
36.44
36.18
34.99
32.67
29.38
25.62
22.05
19.24
17.53
16.94
17.19
17.80
18.27
18.19
17.31
15.54
12.92
9.56
5.59
1.14
-3.67
-8.71
-13.86
-19.04
-24.16
-29.24
-34.33
-39.57
-45.07
-50.92
-57.10
-63.52
-69.91
-75.79
-80.44
-82.89
-82.10
-77.25
-68.04
-54.98
-39.33
-22.84
-7.18
6.44
17.48
25.93
31.97
35.79
37.48
37.20
35.32
32.44
29.34
26.70
24.97
24.27
24.46
25.27
26.44
27.70
28.87
29.72
30.13
29.96
29.20
27.89
26.11
23.94
21.43
18.63
15.55
12.24
8.78
5.28
1.84
-1.47
-4.69
-7.94
-11.40
-15.17
-19.29
-23.71
-28.28
-32.87
-37.34
-41.71
-46.02
-50.48
-55.37
-60.97
-67.34
-74.12
-80.37
-84.69
-85.50
-81.61
-72.68
-59.33
-43.01
-25.50
-8.48
6.89
19.99
30.61
38.76
44.50
47.91
49.12
48.44
46.38
43.61
40.93
39.01
38.28
38.75
40.04
41.54
42.66
43.02
42.57
41.48
39.97
38.17
36.03
33.45
30.36
26.85
23.13
19.44
15.92
12.56
9.26
5.86
2.32
-1.39
-5.26
-9.37
-13.88
-18.93
-24.54
-30.47
-36.28
-41.47
-45.65
-48.82
-51.33
-53.88
-57.21
-61.73
-67.24
-72.78
-76.81
-77.64
-73.98
-65.37
-52.36
-36.32
-19.00
-2.09
13.06
25.64
35.27
41.85
45.57
46.81
46.18
44.41
42.30
40.52
39.50
39.31
39.72
40.31
40.72
40.77
40.49
40.04
39.59
39.10
38.42
37.31
35.60
33.28
30.47
27.33
23.98
20.45
16.73
12.85
8.94
5.20
1.83
-1.04
-3.49
-5.75
-8.14
-11.01
-14.54
-18.74
-23.40
-28.17
-32.73
-36.85
-40.54
-44.06
-47.90
-52.60
-58.54
-65.69
-73.36
-80.27
-84.66
-84.83
-79.65
-68.93
-53.58
-35.30
-16.20
1.81
17.35
29.70
38.71
44.58
47.71
48.59
47.78
45.96
43.76
41.78
40.42
39.80
39.83
40.21
40.61
40.79
40.65
40.22
39.58
38.77
37.70
36.20
34.12
31.45
28.34
25.02
21.74
18.58
15.53
12.47
9.34
6.21
3.18
0.34
-2.31
-4.92
-7.71
-10.85
-14.33
-18.05
-21.81
-25.39
-28.69
-31.68
-34.39
-36.90
-39.47
-42.54
-46.70
-52.46
-59.88
-68.18
-75.71
-80.29
-79.92
-73.53
-61.41
-45.05
-26.70
-8.53
7.82
21.47
32.07
39.62
44.24
46.18
45.91
44.13
41.65
39.21
37.35
36.29
36.05
36.49
37.44
38.65
39.85
40.75
41.10
40.80
39.88
38.49
36.74
34.66
32.21
29.34
26.13
22.77
19.50
16.43
13.51
10.58
7.46
4.17
0.81
-2.52
-5.88
-9.53
-13.75
-18.61
-23.90
-29.11
-33.76
-37.61
-40.85
-43.92
-47.41
-51.82
-57.48
-64.44
-72.32
-80.13
-86.29
-88.84
-86.02
-76.94
-62.04
-43.03
-22.46
-2.82
14.08
27.46
37.33
44.14
48.31
50.16
49.95
48.14
45.42
42.71
40.82
40.18
40.78
42.16
43.68
44.84
45.41
45.46
45.18
44.63
43.71
42.19
39.89
36.83
33.23
29.39
25.59
21.91
18.32
14.74
11.16
7.65
4.28
1.05
-2.17
-5.54
-9.19
-13.16
-17.37
-21.73
-26.14
-30.44
-34.44
-38.01
-41.14
-44.04
-47.23
-51.40
-57.12
-64.56
-73.19
-81.70
-88.23
-90.77
-87.79
-78.66
-63.91
-45.12
-24.52
-4.40
13.39
27.68
38.11
44.88
48.54
49.77
49.25
47.61
45.47
43.40
41.90
41.29
41.62
42.62
43.87
44.94
45.57
45.71
45.48
44.93
44.03
42.62
40.53
37.70
34.25
30.45
26.54
22.68
18.89
15.11
11.30
7.51
3.89
0.59
-2.39
-5.21
-8.23
-11.83
-16.21
-21.30
-26.68
-31.86
-36.44
-40.35
-43.84
-47.45
-51.75
-57.21
-64.02
-71.90
-80.03
-86.98
-90.94
-90.13
-83.43
-70.76
-53.30
-33.15
-12.70
6.01
21.66
33.71
42.19
47.36
49.56
49.26
47.05
43.72
40.09
36.96
34.89
34.13
34.60
35.99
37.81
39.57
40.87
41.46
41.27
40.34
38.79
36.71
34.15
31.12
27.60
23.60
19.18
14.53
9.91
5.62
1.92
-1.15
-3.82
-6.49
-9.60
-13.37
-17.76
-22.51
-27.28
-31.84
-36.11
-40.12
-44.00
-47.93
-52.23
-57.36
-63.74
-71.44
-79.80
-87.26
-91.71
-91.02
-83.90
-70.34
-51.76
-30.56
-9.35
9.74
25.44
37.37
45.69
50.75
52.93
52.62
50.38
47.00
43.45
40.64
39.14
39.02
39.94
41.34
42.68
43.58
43.87
43.60
42.83
41.65
40.11
38.22
35.93
33.20
30.03
26.41
22.40
18.14
13.79
9.55
5.60
2.02
-1.27
-4.50
-8.00
-12.08
-16.90
-22.34
-28.07
-33.70
-38.96
-43.80
-48.37
-52.96
-57.94
-63.65
-70.35
-78.04
-86.20
-93.56
-98.26
-98.24
-91.94
-78.94
-60.30
-38.33
-15.76
4.94
22.31
35.84
45.74
52.39
56.05
56.96
55.49
52.40
48.77
45.74
44.08
44.00
45.12
46.74
48.22
49.19
49.55
49.38
48.77
47.75
46.28
44.30
41.77
38.69
35.08
30.94
26.35
21.50
16.71
12.27
8.37
4.92
1.57
-2.14
-6.57
-11.78
-17.49
-23.27
-28.73
-33.70
-38.29
-42.75
-47.35
-52.34
-57.94
-64.46
-72.09
-80.65
-89.23
-96.13
-99.10
-96.10
-86.09
-69.53
-48.34
-25.29
-3.14
16.15
31.59
43.11
51.09
56.02
58.33
58.49
57.11
54.89
52.58
50.73
49.60
49.16
49.19
49.41
49.62
49.73
49.73
49.61
49.32
48.72
47.63
45.90
43.50
40.56
37.32
34.06
30.95
27.99
24.97
21.65
17.85
13.57
9.03
4.49
0.16
-3.97
-8.11
-12.56
-17.57
-23.16
-29.10
-35.03
-40.61
-45.66
-50.23
-54.65
-59.39
-65.00
-71.93
-80.26
-89.45
-98.13
-104.19
-105.28
-99.56
-86.45
-67.01
-43.73
-19.75
2.14
20.17
33.85
43.63
50.25
54.34
56.23
56.14
54.40
51.66
48.71
46.27
44.75
44.16
44.21
44.49
44.63
44.43
43.77
42.58
40.76
38.28
35.15
31.54
27.76
24.07
20.66
17.48
14.31
10.89
7.06
2.94
-1.09
-4.45
-6.58
-7.20
-6.48
-5.03
-3.80
-3.78
-5.64
-9.53
-15.08
-21.67
-28.69
-35.88
-43.41
-51.65
-60.86
-70.79
-80.41
-87.96
-91.34
-88.67
-78.95
-62.60
-41.36
-17.91
4.95
24.98
40.96
52.63
60.35
64.69
66.20
65.36
62.73
59.02
55.06
51.72
49.57
48.80
49.16
49.99
50.44
49.71
47.29
43.12
37.57
31.33
25.13
19.57
14.93
11.25
8.33
5.99
4.00
2.24
0.61
-0.98
-2.65
-4.57
-6.90
-9.83
-13.50
-17.94
-22.94
-28.11
-32.98
-37.22
-40.87
-44.47
-48.83
-54.80
-62.93
-73.28
-85.38
-98.29
-110.59
-120.48
-125.98
-125.33
-117.48
-102.67
-82.47
-59.44
-36.37
-15.45
2.14
16.22
27.21
35.55
41.51
45.18
46.79
46.90
46.43
46.41
47.60
50.21
53.86
57.76
61.13
63.45
64.57
64.54
63.47
61.33
58.01
53.47
47.87
41.60
35.14
28.81
22.60
16.29
9.65
2.67
-4.24
-10.47
-15.44
-18.97
-21.27
-22.95
-24.61
-26.69
-29.30
-32.29
-35.49
-38.79
-42.21
-45.88
-50.02
-54.89
-60.80
-67.92
-75.99
-83.97
-89.91
-91.33
-85.96
-72.64
-51.97
-26.29
0.93
26.22
47.02
62.15
71.73
76.65
78.05
76.98
74.31
70.88
67.47
64.76
63.16
62.70
63.01
63.51
63.57
62.78
61.02
58.37
55.02
51.13
46.70
41.58
35.53
28.39
20.18
11.20
2.06
-6.53
-13.88
-19.54
-23.52
-26.23
-28.46
-31.15
-35.05
-40.50
-47.23
-54.50
-61.24
-66.44
-69.45
-70.21
-69.26
-67.63
-66.65
-67.60
-71.31
-77.78
-85.88
-93.36
-97.37
-95.22
-85.37
-68.04
-45.19
-19.93
4.49
25.66
42.51
55.25
64.81
72.23
78.14
82.75
86.00
87.86
88.42
87.91
86.54
84.34
81.13
76.70
70.98
64.22
56.95
49.84
43.41
37.86
33.05
28.63
24.22
19.59
14.66
9.48
4.02
-1.82
-8.17
-15.06
-22.24
-29.21
-35.33
-40.11
-43.50
-45.94
-48.39
-52.05
-57.98
-66.64
-77.46
-88.67
-97.51
-100.91
-96.46
-83.24
-62.29
-36.30
-8.78
16.99
38.70
55.35
66.87
73.64
76.11
74.74
70.12
63.21
55.39
48.17
42.84
40.11
39.86
41.37
43.56
45.44
46.34
46.11
44.91
43.06
40.73
37.83
34.07
29.03
22.42
14.25
4.94
-4.79
-14.07
-22.14
-28.52
-33.24
-36.67
-39.46
-42.38
-46.11
-51.11
-57.37
-64.23
-70.27
-73.63
-72.42
-65.43
-52.64
-35.34
-15.73
3.75
21.11
35.14
45.42
51.97
54.98
54.73
51.69
46.63
40.71
35.17
31.07
28.90
28.46
29.05
29.72
29.66
28.45
26.15
23.15
19.96
16.99
14.28
11.58
8.36
4.15
-1.23
-7.61
-14.48
-21.26
-27.52
-33.12
-38.29
-43.37
-48.82
-55.02
-62.29
-70.70
-79.85
-88.63
-95.25
-97.54
-93.64
-82.70
-65.33
-43.48
-19.87
2.80
22.54
38.28
49.75
57.10
60.63
60.68
57.75
52.60
46.26
39.87
34.39
30.42
28.07
26.98
26.54
26.10
25.12
23.36
20.87
17.92
14.83
11.74
8.53
4.84
0.20
-5.68
-12.73
-20.52
-28.38
-35.67
-42.01
-47.41
-52.15
-56.73
-61.70
-67.53
-74.45
-82.23
-90.00
-96.19
-98.78
-95.82
-86.04
-69.42
-47.30
-22.12
3.33
26.57
45.98
60.86
71.16
77.17
79.31
78.08
74.20
68.68
62.73
57.46
53.65
51.54
50.85
51.09
51.76
52.49
53.09
53.36
53.02
51.62
48.78
44.29
38.23
31.03
23.27
15.43
7.69
-0.09
-8.23
-16.98
-26.31
-35.83
-44.94
-52.97
-59.48
-64.40
-68.07
-71.26
-75.00
-80.32
-87.81
-97.07
-106.50
-113.51
-115.24
-109.59
-96.04
-75.93
-51.95
-27.22
-4.36
15.03
30.36
41.59
48.83
52.22
52.05
49.00
44.28
39.37
35.57
33.57
33.25
33.83
34.29
33.83
32.24
29.93
27.73
26.49
26.78
28.60
31.42
34.31
36.31
36.76
35.50
32.85
29.23
24.91
19.78
13.49
5.80
-2.99
-11.94
-19.68
-25.04
-27.52
-27.61
-26.62
-26.24
-28.18
-33.76
-43.68
-57.67
-74.10
-89.83
-100.64
-102.27
-91.93
-69.50
-37.87
-2.18
31.85
59.54
78.29
87.63
88.54
82.63
71.70
57.65
42.70
29.29
19.79
15.92
18.27
26.14
37.70
50.58
62.37
71.06
75.32
74.60
69.08
59.65
47.76
35.17
23.65
14.69
9.22
7.39
8.62
11.75
15.28
17.76
18.07
15.58
10.27
2.55
-6.91
-17.42
-28.45
-39.75
-51.24
-62.88
-74.34
-84.70
-92.40
-95.47
-91.99
-80.85
-62.26
-37.82
-10.22
17.45
42.44
62.80
77.44
86.09
88.93
86.57
79.87
70.05
58.49
46.57
35.48
25.98
18.47
12.98
9.40
7.51
7.06
7.73
9.14
10.84
12.29
12.89
12.07
9.36
4.53
-2.24
-10.40
-19.07
-27.28
-34.20
-39.36
-42.66
-44.40
-45.14
-45.55
-46.24
-47.45
-48.91
-49.72
-48.59
-44.27
-36.07
-24.26
-10.08
4.62
18.01
28.73
36.21
40.47
41.87
40.78
37.50
32.40
26.13
19.63
14.05
10.33
8.89
9.49
11.25
13.10
14.16
14.00
12.73
10.82
8.83
7.11
5.72
4.48
3.07
1.15
-1.44
-4.77
-8.71
-13.10
-17.71
-22.41
-27.15
-32.02
-37.19
-42.88
-49.31
-56.52
-64.22
-71.66
-77.58
-80.39
-78.58
-71.22
-58.38
-41.22
-21.75
-2.25
15.27
29.44
39.67
45.88
48.33
47.39
43.54
37.54
30.43
23.44
17.74
14.08
12.55
12.58
13.26
13.69
13.36
12.29
10.85
9.43
8.17
6.79
4.80
1.68
-2.78
-8.36
-14.56
-20.74
-26.40
-31.38
-35.77
-39.93
-44.29
-49.34
-55.46
-62.68
-70.46
-77.51
-81.92
-81.66
-75.26
-62.46
-44.43
-23.39
-1.96
17.66
34.07
46.68
55.39
60.25
61.42
59.20
54.31
47.85
41.13
35.28
30.99
28.33
26.92
26.16
25.48
24.51
23.15
21.43
19.51
17.52
15.46
13.11
10.14
6.18
1.03
-5.13
-11.80
-18.25
-23.85
-28.37
-32.09
-35.66
-39.95
-45.64
-53.04
-61.86
-71.12
-79.22
-84.14
-83.92
-77.22
-63.86
-44.98
-22.83
-0.19
20.41
37.23
49.49
57.25
61.03
61.47
59.20
54.85
49.12
42.82
36.85
32.03
28.89
27.61
27.94
29.36
31.20
32.85
33.84
33.87
32.77
30.51
27.13
22.77
17.64
11.91
5.74
-0.71
-7.24
-13.55
-19.27
-24.05
-27.68
-30.25
-32.16
-33.99
-36.44
-40.20
-45.79
-53.39
-62.54
-71.97
-79.65
-83.21
-80.71
-71.34
-55.79
-36.06
-14.79
5.49
23.02
36.94
47.08
53.64
56.92
57.22
55.05
51.14
46.47
42.04
38.62
36.49
35.43
34.94
34.43
33.58
32.43
31.23
30.22
29.43
28.63
27.39
25.36
22.38
18.58
14.28
9.84
5.54
1.49
-2.38
-6.31
-10.59
-15.40
-20.70
-26.20
-31.41
-35.82
-39.21
-41.74
-44.02
-46.89
-51.23
-57.46
-65.39
-73.98
-81.45
-85.72
-84.83
-77.67
-64.30
-46.02
-25.01
-3.76
15.58
31.57
43.57
51.58
55.96
57.24
56.06
53.06
48.96
44.52
40.51
37.56
36.05
35.99
37.00
38.45
39.66
40.17
39.86
38.90
37.53
35.90
33.97
31.61
28.76
25.50
22.02
18.53
15.08
11.63
8.10
4.49
0.78
-3.05
-7.10
-11.53
-16.42
-21.63
-26.78
-31.42
-35.20
-38.08
-40.37
-42.60
-45.43
-49.38
-54.78
-61.65
-69.55
-77.51
-84.01
-87.26
-85.56
-77.92
-64.42
-46.35
-25.91
-5.60
12.45
26.87
37.26
43.91
47.37
48.24
47.01
44.19
40.37
36.34
32.81
30.28
28.90
28.49
28.71
29.25
29.97
30.77
31.54
32.02
31.92
30.95
29.01
26.19
22.74
18.86
14.65
10.16
5.42
0.63
-3.87
-7.75
-10.83
-13.27
-15.48
-18.02
-21.22
-25.07
-29.22
-33.18
-36.60
-39.44
-41.96
-44.59
-47.75
-51.80
-57.01
-63.56
-71.24
-79.29
-86.14
-89.68
-87.77
-79.10
-63.69
-43.12
-19.94
3.01
23.41
39.89
51.98
59.81
63.76
64.32
62.06
57.75
52.35
46.97
42.54
39.66
38.36
38.24
38.65
38.96
38.81
38.16
37.17
36.03
34.85
33.57
32.07
30.23
28.00
25.44
22.66
19.78
16.86
13.93
10.92
7.79
4.50
1.10
-2.28
-5.55
-8.78
-12.22
-16.19
-20.91
-26.26
-31.78
-36.82
-40.87
-43.84
-46.20
-48.82
-52.66
-58.39
-66.00
-74.70
-82.98
-88.94
-90.69
-86.92
-77.22
-62.29
-43.71
-23.59
-4.03
13.25
27.20
37.42
44.01
47.39
48.10
46.83
44.29
41.27
38.57
36.83
36.40
37.17
38.73
40.53
42.09
43.20
43.89
44.25
44.28
43.82
42.64
40.59
37.65
34.01
29.91
25.59
21.20
16.87
12.68
8.74
5.10
1.69
-1.74
-5.49
-9.85
-14.84
-20.25
-25.59
-30.42
-34.51
-37.96
-41.16
-44.67
-48.99
-54.39
-60.91
-68.21
-75.50
-81.50
-84.59
-83.10
-75.91
-62.86
-45.05
-24.61
-4.08
14.31
29.18
40.09
47.24
51.09
52.10
50.72
47.53
43.40
39.38
36.43
35.11
35.42
36.89
38.85
40.71
42.06
42.74
42.73
42.04
40.75
38.91
36.66
34.12
31.30
28.16
24.59
20.58
16.25
11.91
7.90
4.45
1.50
-1.26
-4.28
-7.95
-12.33
-17.19
-22.08
-26.60
-30.62
-34.27
-37.87
-41.83
-46.49
-52.09
-58.67
-65.92
-73.04
-78.70
-81.25
-79.15
-71.51
-58.51
-41.37
-22.11
-2.90
14.42
28.68
39.35
46.42
50.11
50.84
49.13
45.71
41.50
37.46
34.42
32.88
32.93
34.25
36.25
38.34
40.03
41.12
41.52
41.22
40.22
38.46
35.86
32.44
28.33
23.85
19.41
15.38
11.95
9.06
6.26
3.03
-1.03
-5.95
-11.34
-16.54
-20.93
-24.25
-26.74
-29.05
-31.97
-36.16
-41.99
-49.34
-57.50
-65.19
-70.66
-72.07
-68.05
-58.18
-43.25
-25.08
-5.98
11.90
27.03
38.61
46.45
50.70
51.72
50.07
46.49
41.93
37.39
33.67
31.23
30.05
29.77
29.90
30.05
30.08
30.07
30.11
30.23
30.20
29.67
28.31
26.01
22.88
19.23
15.34
11.41
7.45
3.42
-0.72
-4.96
-9.22
-13.42
-17.42
-21.13
-24.50
-27.53
-30.33
-33.13
-36.29
-40.25
-45.39
-51.74
-58.79
-65.34
-69.71
-70.14
-65.39
-55.32
-40.89
-23.96
-6.65
9.24
22.55
32.78
39.80
43.70
44.62
42.94
39.31
34.64
29.98
26.26
24.05
23.49
24.27
25.82
27.51
28.82
29.48
29.44
28.76
27.51
25.68
23.18
20.02
16.30
12.36
8.61
5.43
2.90
0.82
-1.28
-3.91
-7.41
-11.80
-16.77
-21.81
-26.40
-30.23
-33.24
-35.72
-38.12
-41.05
-45.01
-50.27
-56.61
-63.25
-68.79
-71.50
-69.81
-62.83
-50.74
-34.82
-17.11
0.24
15.46
27.51
36.03
41.12
43.12
42.51
39.90
36.14
32.17
28.88
26.84
26.15
26.48
27.29
28.00
28.29
28.09
27.51
26.72
25.83
24.87
23.77
22.39
20.59
18.23
15.31
11.93
8.27
4.58
0.98
-2.58
-6.28
-10.36
-14.89
-19.70
-24.41
-28.65
-32.22
-35.31
-38.49
-42.46
-47.82
-54.73
-62.64
-70.34
-76.14
-78.26
-75.34
-66.85
-53.33
-36.32
-17.86
-0.06
15.48
27.78
36.59
42.05
44.56
44.60
42.77
39.80
36.53
33.72
31.88
31.10
31.09
31.34
31.39
31.00
30.22
29.16
27.92
26.37
24.28
21.44
17.82
13.65
9.37
5.39
1.89
-1.21
-4.27
-7.70
-11.72
-16.25
-20.93
-25.29
-28.98
-31.88
-34.13
-36.13
-38.35
-41.27
-45.21
-50.19
-55.72
-60.75
-63.81
-63.37
-58.36
-48.59
-34.98
-19.25
-3.47
10.61
21.87
29.94
34.99
37.46
37.79
36.33
33.47
29.61
25.19
20.65
16.33
12.36
8.71
5.25
1.84
-1.55
-4.88
-8.02
-10.87
-13.42
-15.76
-18.12
-20.74
-23.80
-27.35
-31.25
-35.16
-38.63
-41.11
-42.11
-41.30
-38.61
-34.27
-28.82
-23.00
-17.64
-13.57
-11.49
-11.79
-14.35
-18.36
-22.30
-24.34
-22.88
-17.17
-7.56
4.61
17.56
29.68
39.95
47.95
53.60
56.88
57.64
55.79
51.55
45.69
39.47
34.38
31.67
32.00
35.16
40.18
45.67
50.20
52.79
53.05
51.21
47.89
43.77
39.36
34.94
30.56
26.12
21.54
16.81
11.97
7.08
2.12
-3.03
-8.53
-14.52
-21.01
-27.77
-34.36
-40.13
-44.30
-46.08
-44.88
-40.47
-33.08
-23.50
-12.86
-2.40
6.87
14.40
20.14
24.34
27.37
29.46
30.73
31.25
31.14
30.68
30.15
29.76
29.45
29.01
28.13
26.59
24.38
21.75
19.09
16.73
14.84
13.36
12.02
10.43
8.32
5.63
2.49
-0.79
-3.99
-7.00
-9.99
-13.31
-17.39
-22.62
-29.21
-37.10
-45.82
-54.45
-61.57
-65.60
-65.18
-59.66
-49.36
-35.53
-19.93
-4.41
9.65
21.33
30.19
36.03
38.83
38.74
36.22
32.03
27.12
22.43
18.56
15.75
13.86
12.56
11.53
10.59
9.73
9.01
8.46
8.00
7.35
6.13
3.95
0.60
-3.93
-9.34
-15.15
-20.84
-26.03
-30.62
-34.79
-39.00
-43.82
-49.74
-56.89
-64.82
-72.38
-77.87
-79.47
-75.83
-66.62
-52.70
-35.91
-18.53
-2.63
10.38
19.90
25.93
28.91
29.52
28.58
27.11
26.19
26.69
28.98
32.74
37.01
40.47
42.04
41.24
38.39
34.33
30.06
26.26
23.05
20.01
16.50
11.99
6.43
0.25
-5.77
-10.80
-14.36
-16.56
-18.13
-20.30
-24.34
-31.14
-40.69
-51.90
-62.60
-70.04
-71.61
-65.59
-51.73
-31.38
-7.14
17.87
40.70
59.23
72.28
79.60
81.63
79.32
73.99
67.23
60.67
55.56
52.38
50.76
49.59
47.68
44.31
39.63
34.47
29.88
26.58
24.61
23.39
22.10
20.08
17.01
12.94
8.09
2.81
-2.58
-7.74
-12.42
-16.63
-20.76
-25.42
-31.18
-38.08
-45.28
-51.16
-53.73
-51.35
-43.40
-30.54
-14.61
2.09
17.38
29.79
38.68
44.09
46.35
45.88
43.14
38.67
33.20
27.56
22.49
18.48
15.59
13.60
12.13
10.93
9.88
9.07
8.59
8.43
8.40
8.11
7.06
4.84
1.25
-3.55
-8.99
-14.26
-18.58
-21.52
-23.24
-24.42
-26.06
-29.16
-34.28
-41.32
-49.40
-56.94
-62.03
-62.84
-58.16
-47.83
-32.78
-14.92
3.49
20.36
34.27
44.58
51.29
54.75
55.39
53.69
50.18
45.54
40.55
35.90
32.08
29.20
27.04
25.25
23.48
21.60
19.66
17.89
16.47
15.45
14.68
13.82
12.54
10.61
7.99
4.83
1.38
-2.10
-5.50
-8.76
-11.96
-15.20
-18.68
-22.63
-27.36
-33.22
-40.48
-49.14
-58.74
-68.24
-76.05
-80.33
-79.55
-72.94
-60.82
-44.59
-26.35
-8.30
7.79
20.85
30.49
36.81
40.13
40.84
39.42
36.48
32.73
28.87
25.47
22.88
21.15
20.11
19.49
19.02
18.54
18.03
17.55
17.19
16.92
16.55
15.77
14.21
11.67
8.15
3.97
-0.40
-4.51
-8.09
-11.22
-14.25
-17.60
-21.62
-26.34
-31.50
-36.64
-41.30
-45.16
-48.15
-50.49
-52.54
-54.84
-57.99
-62.47
-68.43
-75.36
-81.95
-86.24
-86.18
-80.22
-67.95
-50.25
-29.05
-6.73
14.40
32.58
46.74
56.48
61.92
63.59
62.34
59.14
54.93
50.49
46.28
42.40
38.66
34.76
30.48
26.02
22.03
19.45
19.16
21.45
25.69
30.40
33.73
34.13
30.98
24.81
17.13
9.69
3.93
0.40
-1.20
-1.79
-2.32
-3.34
-4.90
-6.59
-8.03
-9.09
-10.04
-11.41
-13.71
-17.15
-21.60
-26.72
-32.14
-37.67
-43.14
-48.32
-52.71
-55.48
-55.64
-52.37
-45.32
-34.81
-21.81
-7.72
6.00
18.03
27.52
34.03
37.51
38.20
36.58
33.32
29.28
25.36
22.36
20.80
20.79
22.10
24.30
26.99
29.91
32.95
35.98
38.70
40.56
40.94
39.28
35.38
29.55
22.58
15.61
9.87
6.39
5.69
7.51
10.82
13.99
15.30
13.45
8.12
-0.01
-9.47
-18.61
-26.17
-31.69
-35.54
-38.62
-42.01
-46.52
-52.50
-59.68
-67.18
-73.74
-77.88
-78.35
-74.33
-65.77
-53.34
-38.31
-22.25
-6.74
6.94
17.91
25.76
30.48
32.32
31.72
29.25
25.59
21.50
17.72
14.85
13.26
12.97
13.76
15.25
17.08
18.87
20.32
21.09
20.85
19.40
16.82
13.54
10.18
7.34
5.27
3.81
2.44
0.55
-2.27
-6.07
-10.60
-15.49
-20.34
-24.90
-29.06
-32.80
-36.24
-39.65
-43.45
-48.04
-53.56
-59.56
-65.00
-68.37
-68.22
-63.58
-54.41
-41.52
-26.38
-10.68
4.13
17.04
27.58
35.62
41.17
44.30
45.14
43.93
41.20
37.69
34.26
31.62
30.11
29.64
29.86
30.34
30.82
31.17
31.35
31.22
30.55
29.02
26.44
22.88
18.66
14.29
10.26
6.86
4.03
1.45
-1.40
-4.96
-9.47
-14.77
-20.39
-25.70
-30.21
-33.76
-36.62
-39.40
-42.84
-47.56
-53.80
-61.20
-68.82
-75.18
-78.63
-77.74
-71.77
-60.89
-46.18
-29.29
-12.03
4.04
17.86
28.89
37.00
42.34
45.20
45.99
45.21
43.46
41.35
39.45
38.14
37.62
37.81
38.42
39.10
39.55
39.59
39.23
38.50
37.47
36.11
34.32
32.02
29.14
25.74
21.96
17.98
13.99
10.17
6.60
3.28
0.16
-2.92
-6.12
-9.61
-13.50
-17.78
-22.31
-26.84
-31.11
-34.94
-38.40
-41.79
-45.66
-50.53
-56.69
-63.97
-71.56
-78.12
-82.06
-81.88
-76.63
-66.20
-51.42
-33.89
-15.57
1.64
16.37
27.90
36.09
41.24
43.79
44.27
43.22
41.24
38.95
36.92
35.64
35.32
35.94
37.24
38.85
40.38
41.50
42.02
41.82
40.94
39.44
37.45
35.09
32.48
29.73
26.89
23.92
20.75
17.26
13.40
9.24
5.00
0.95
-2.67
-5.81
-8.59
-11.27
-14.15
-17.45
-21.24
-25.42
-29.82
-34.20
-38.41
-42.42
-46.41
-50.72
-55.76
-61.74
-68.38
-74.77
-79.42
-80.64
-77.11
-68.38
-55.06
-38.68
-21.16
-4.32
10.58
22.84
32.24
38.76
42.52
43.74
42.90
40.75
38.14
35.89
34.52
34.14
34.62
35.62
36.83
37.95
38.76
39.08
38.79
37.87
36.42
34.64
32.68
30.62
28.34
25.68
22.53
18.94
15.12
11.31
7.69
4.29
1.03
-2.22
-5.52
-8.87
-12.22
-15.54
-18.85
-22.22
-25.70
-29.26
-32.81
-36.27
-39.68
-43.30
-47.59
-52.96
-59.46
-66.54
-72.98
-77.08
-77.23
-72.38
-62.43
-48.26
-31.49
-14.03
2.39
16.52
27.72
35.85
41.14
43.99
44.81
43.98
41.87
39.01
36.04
33.68
32.52
32.75
34.11
36.02
37.80
38.98
39.38
39.10
38.30
37.10
35.44
33.24
30.48
27.29
23.93
20.62
17.44
14.32
11.06
7.56
3.82
0.01
-3.71
-7.26
-10.77
-14.44
-18.41
-22.66
-26.93
-30.89
-34.35
-37.36
-40.26
-43.56
-47.73
-53.06
-59.50
-66.55
-73.26
-78.31
-80.25
-77.83
-70.49
-58.52
-43.10
-26.00
-9.13
5.94
18.20
27.26
33.21
36.40
37.27
36.33
34.23
31.63
29.24
27.57
26.88
27.07
27.83
28.75
29.54
30.11
30.46
30.64
30.60
30.19
29.21
27.49
24.93
21.61
17.68
13.43
9.23
5.38
2.08
-0.73
-3.37
-6.27
-9.84
-14.25
-19.27
-24.43
-29.18
-33.17
-36.39
-39.23
-42.27
-46.12
-51.20
-57.51
-64.60
-71.45
-76.65
-78.66
-76.18
-68.58
-56.16
-40.17
-22.46
-4.94
10.82
23.96
34.20
41.62
46.40
48.71
48.72
46.88
43.91
40.81
38.48
37.52
37.93
39.22
40.67
41.71
42.06
41.82
41.26
40.59
39.79
38.64
36.85
34.24
30.83
26.86
22.64
18.45
14.41
10.55
6.81
3.12
-0.63
-4.57
-8.82
-13.45
-18.37
-23.30
-27.89
-31.86
-35.29
-38.56
-42.31
-47.22
-53.66
-61.57
-70.26
-78.50
-84.68
-87.11
-84.46
-76.13
-62.57
-45.18
-26.01
-7.16
9.68
23.59
34.33
42.10
47.20
49.91
50.51
49.44
47.36
45.14
43.60
43.20
43.96
45.42
47.00
48.18
48.71
48.62
48.02
46.99
45.47
43.43
40.88
38.00
35.04
32.17
29.37
26.44
23.15
19.41
15.36
11.29
7.50
4.04
0.71
-2.85
-6.97
-11.75
-17.02
-22.42
-27.63
-32.41
-36.72
-40.63
-44.33
-48.17
-52.68
-58.46
-65.92
-74.82
-84.02
-91.51
-94.93
-92.37
-83.08
-67.83
-48.55
-27.79
-7.82
9.77
24.27
35.53
43.67
48.87
51.36
51.55
50.12
47.94
45.88
44.59
44.29
44.89
46.07
47.48
48.82
49.92
50.63
50.81
50.41
49.38
47.73
45.47
42.66
39.30
35.52
31.51
27.52
23.74
20.19
16.78
13.33
9.76
6.16
2.70
-0.52
-3.59
-6.76
-10.34
-14.44
-18.86
-23.16
-26.93
-30.03
-32.77
-35.85
-40.11
-46.25
-54.55
-64.64
-75.51
-85.54
-92.74
-95.19
-91.51
-81.26
-65.21
-45.16
-23.55
-2.79
15.23
29.55
39.99
46.87
50.68
51.87
50.84
48.11
44.47
40.89
38.25
37.08
37.30
38.34
39.49
40.24
40.43
40.22
39.82
39.28
38.39
36.86
34.44
31.15
27.22
22.95
18.62
14.35
10.20
6.19
2.40
-1.09
-4.33
-7.48
-10.82
-14.59
-18.86
-23.42
-27.89
-31.94
-35.48
-38.76
-42.28
-46.63
-52.24
-59.25
-67.34
-75.67
-82.86
-87.17
-86.90
-80.93
-69.09
-52.40
-32.83
-12.70
5.92
21.68
34.05
43.08
49.05
52.30
53.12
51.85
49.06
45.61
42.46
40.44
40.03
41.10
43.09
45.22
46.81
47.51
47.29
46.36
44.92
43.03
40.66
37.77
34.40
30.63
26.61
22.44
18.20
13.97
9.85
5.99
2.46
-0.85
-4.22
-8.00
-12.43
-17.48
-22.86
-28.11
-32.84
-36.88
-40.37
-43.72
-47.42
-52.02
-57.98
-65.53
-74.40
-83.61
-91.42
-95.60
-94.08
-85.69
-70.69
-50.80
-28.68
-7.12
11.79
27.00
38.41
46.46
51.62
54.24
54.57
53.02
50.30
47.33
45.06
44.06
44.42
45.71
47.26
48.48
49.04
48.88
48.18
47.08
45.65
43.82
41.43
38.31
34.41
29.81
24.78
19.70
14.96
10.80
7.31
4.29
1.33
-1.98
-5.91
-10.48
-15.41
-20.34
-24.96
-29.19
-33.15
-37.10
-41.26
-45.67
-50.46
-55.74
-61.79
-68.82
-76.61
-84.06
-89.37
-90.57
-86.33
-76.49
-62.12
-44.95
-26.69
-8.56
8.67
24.33
37.60
47.50
53.34
55.16
53.81
50.69
47.23
44.32
42.25
40.87
39.86
39.08
38.52
38.25
38.22
38.37
38.32
37.70
36.13
33.40
29.57
24.95
20.02
15.25
10.95
7.13
3.52
-0.30
-4.71
-9.85
-15.56
-21.42
-26.91
-31.67
-35.61
-39.00
-42.41
-46.53
-51.96
-58.94
-67.09
-75.23
-81.58
-84.05
-80.95
-71.53
-56.33
-37.10
-16.26
3.77
21.20
35.08
45.16
51.67
54.94
55.37
53.47
49.95
45.76
41.84
38.94
37.36
36.94
37.18
37.56
37.76
37.70
37.50
37.16
36.52
35.18
32.76
29.08
24.33
18.98
13.62
8.66
4.19
0.03
-4.16
-8.70
-13.68
-18.97
-24.29
-29.30
-33.79
-37.74
-41.31
-44.84
-48.76
-53.55
-59.60
-66.97
-74.99
-82.18
-86.41
-85.48
-78.00
-63.95
-44.90
-23.49
-2.56
15.69
30.13
40.60
47.46
51.20
52.21
50.89
47.86
43.96
40.22
37.47
36.15
36.20
37.11
38.18
38.80
38.69
37.92
36.82
35.72
34.76
33.75
32.23
29.72
26.00
21.21
15.89
10.76
6.41
3.06
0.50
-1.84
-4.55
-8.04
-12.33
-17.08
-21.77
-25.92
-29.32
-32.09
-34.63
-37.49
-41.28
-46.49
-53.38
-61.72
-70.59
-78.31
-82.77
-81.92
-74.62
-61.04
-42.75
-22.16
-1.79
16.46
31.53
43.10
51.20
55.93
57.45
56.11
52.56
47.83
43.05
39.23
36.97
36.36
37.05
38.42
39.79
40.63
40.69
39.98
38.71
37.07
35.16
32.92
30.18
26.81
22.84
18.42
13.87
9.48
5.38
1.54
-2.28
-6.34
-10.82
-15.68
-20.70
-25.57
-30.01
-33.93
-37.44
-40.77
-44.18
-47.99
-52.49
-58.06
-64.94
-73.05
-81.56
-88.87
-92.85
-91.45
-83.47
-69.10
-49.92
-28.44
-7.24
11.63
27.03
38.58
46.33
50.50
51.34
49.34
45.29
40.31
35.59
32.08
30.18
29.78
30.36
31.32
32.21
32.83
33.15
33.18
32.87
31.99
30.27
27.48
23.54
18.63
13.22
7.87
3.08
-0.96
-4.40
-7.70
-11.40
-15.80
-20.88
-26.29
-31.56
-36.33
-40.49
-44.29
-48.21
-52.85
-58.66
-65.71
-73.44
-80.55
-85.24
-85.60
-80.24
-68.82
-52.21
-32.36
-11.68
7.57
23.82
36.32
45.04
50.36
52.79
52.81
50.97
47.96
44.60
41.70
39.87
39.30
39.76
40.77
41.87
42.82
43.61
44.28
44.72
44.58
43.39
40.77
36.66
31.39
25.53
19.62
14.01
8.71
3.46
-2.11
-8.26
-15.05
-22.24
-29.42
-36.05
-41.62
-45.83
-48.70
-50.67
-52.62
-55.64
-60.74
-68.32
-77.78
-87.36
-94.54
-96.71
-92.11
-80.40
-62.86
-41.88
-20.17
-0.03
17.13
30.71
40.67
47.22
50.65
51.39
50.03
47.35
44.25
41.55
39.79
39.15
39.50
40.51
41.83
43.23
44.65
46.08
47.48
48.64
49.18
48.70
46.91
43.85
39.81
35.28
30.64
26.04
21.33
16.23
10.53
4.24
-2.30
-8.58
-14.08
-18.54
-22.11
-25.26
-28.70
-33.19
-39.37
-47.58
-57.68
-68.81
-79.29
-86.87
-89.28
-84.95
-73.67
-56.64
-36.15
-14.72
5.52
23.21
37.69
48.59
55.70
58.94
58.59
55.44
50.67
45.55
41.10
37.93
36.28
36.03
36.90
38.35
39.67
40.17
39.29
36.85
33.04
28.26
22.95
17.41
11.80
6.19
0.65
-4.70
-9.73
-14.37
-18.65
-22.73
-26.88
-31.36
-36.33
-41.71
-47.24
-52.62
-57.81
-63.12
-69.08
-75.97
-83.24
-89.36
-92.14
-89.61
-80.84
-66.38
-48.08
-28.31
-9.20
7.92
22.48
34.33
43.41
49.53
52.53
52.51
50.00
45.97
41.58
37.89
35.54
34.62
34.73
35.16
35.24
34.50
32.78
30.25
27.24
24.08
20.93
17.70
14.01
9.38
3.51
-3.52
-11.09
-18.27
-24.23
-28.63
-31.80
-34.60
-38.08
-43.03
-49.79
-58.09
-67.06
-75.29
-81.01
-82.37
-77.98
-67.37
-51.33
-31.73
-11.03
8.48
25.26
38.62
48.57
55.34
59.16
60.15
58.52
54.83
50.03
45.27
41.58
39.50
38.96
39.44
40.24
40.82
40.89
40.31
38.97
36.69
33.32
28.89
23.74
18.39
13.35
8.83
4.64
0.35
-4.50
-10.06
-16.16
-22.43
-28.44
-33.96
-39.02
-43.82
-48.75
-54.25
-60.78
-68.55
-77.23
-85.66
-91.94
-93.86
-89.54
-78.28
-60.88
-39.41
-16.56
5.18
24.10
39.44
51.10
59.28
64.23
66.19
65.62
63.23
60.03
57.06
55.10
54.40
54.70
55.34
55.62
55.05
53.53
51.33
48.86
46.46
44.19
41.79
38.85
35.03
30.20
24.56
18.54
12.67
7.26
2.37
-2.25
-7.00
-12.21
-18.00
-24.20
-30.41
-36.16
-41.17
-45.37
-49.03
-52.61
-56.72
-61.93
-68.59
-76.71
-85.63
-94.03
-99.93
-101.25
-96.36
-84.74
-67.24
-45.92
-23.38
-2.02
16.53
31.56
43.02
51.12
56.03
57.90
57.00
54.02
49.97
45.98
43.02
41.49
41.25
41.72
42.25
42.35
41.86
40.94
39.81
38.60
37.24
35.43
32.85
29.30
24.82
19.71
14.44
9.47
5.10
1.36
-2.01
-5.46
-9.36
-13.92
-19.06
-24.41
-29.53
-34.09
-38.01
-41.51
-45.03
-49.09
-54.22
-60.78
-68.72
-77.41
-85.45
-90.82
-91.38
-85.56
-73.01
-54.81
-33.20
-10.84
9.97
27.76
41.98
52.62
59.89
63.89
64.78
62.98
59.29
54.90
51.04
48.57
47.72
48.08
48.89
49.39
49.19
48.33
47.08
45.75
44.42
42.92
40.91
38.07
34.24
29.49
24.13
18.57
13.23
8.41
4.18
0.37
-3.39
-7.50
-12.21
-17.49
-23.07
-28.51
-33.46
-37.76
-41.56
-45.25
-49.36
-54.46
-61.00
-69.10
-78.32
-87.50
-94.81
-98.09
-95.48
-86.07
-70.33
-50.06
-27.81
-6.11
13.19
29.18
41.74
51.14
57.60
61.16
61.88
60.09
56.56
52.36
48.62
46.08
44.97
45.00
45.58
46.20
46.52
46.49
46.13
45.49
44.45
42.85
40.50
37.38
33.65
29.59
25.46
21.41
17.43
13.43
9.35
5.18
0.99
-3.21
-7.46
-11.92
-16.68
-21.75
-26.97
-32.10
-36.90
-41.26
-45.20
-48.87
-52.54
-56.60
-61.61
-68.04
-75.97
-84.72
-92.77
-97.94
-98.08
-91.74
-78.78
-60.40
-38.81
-16.54
4.21
21.89
35.76
45.64
51.76
54.56
54.66
52.80
49.82
46.63
43.97
42.37
41.94
42.41
43.27
43.95
44.13
43.76
43.07
42.32
41.59
40.71
39.37
37.28
34.36
30.80
26.94
23.09
19.39
15.83
12.28
8.65
4.98
1.27
-2.48
-6.39
-10.62
-15.29
-20.34
-25.54
-30.56
-35.17
-39.31
-43.13
-47.00
-51.39
-56.76
-63.42
-71.29
-79.77
-87.60
-93.03
-94.21
-89.75
-79.14
-63.11
-43.40
-22.33
-2.22
15.19
28.95
38.82
45.02
47.98
48.20
46.19
42.69
38.61
34.98
32.66
32.11
33.20
35.30
37.60
39.40
40.39
40.61
40.27
39.50
38.21
36.12
32.96
28.60
23.24
17.34
11.53
6.35
2.11
-1.27
-4.16
-7.12
-10.66
-15.00
-19.96
-25.08
-29.81
-33.73
-36.81
-39.40
-42.10
-45.61
-50.49
-57.00
-64.87
-73.20
-80.45
-84.69
-84.10
-77.57
-65.12
-47.99
-28.29
-8.37
9.81
25.04
36.82
45.12
50.12
52.06
51.30
48.48
44.55
40.62
37.64
36.09
35.91
36.56
37.37
37.87
37.90
37.56
37.09
36.56
35.87
34.71
32.79
29.90
26.06
21.51
16.65
11.94
7.69
3.99
0.59
-3.01
-7.36
-12.71
-18.90
-25.34
-31.17
-35.72
-38.73
-40.48
-41.74
-43.47
-46.58
-51.62
-58.49
-66.42
-73.91
-79.03
-79.87
-75.10
-64.43
-48.73
-29.85
-10.16
8.13
23.43
34.97
42.74
47.16
48.74
48.03
45.50
41.75
37.55
33.73
31.06
29.92
30.19
31.34
32.69
33.65
33.95
33.54
32.52
30.94
28.70
25.68
21.83
17.30
12.43
7.62
3.12
-1.04
-5.03
-9.14
-13.52
-18.14
-22.79
-27.17
-31.03
-34.35
-37.32
-40.34
-43.97
-48.72
-54.75
-61.69
-68.33
-72.92
-73.56
-68.91
-58.71
-43.92
-26.39
-8.27
8.65
23.21
34.86
43.37
48.65
50.71
49.79
46.54
41.99
37.27
33.34
30.74
29.57
29.58
30.42
31.67
33.00
34.10
34.70
34.61
33.76
32.09
29.61
26.34
22.35
17.82
13.08
8.53
4.48
0.94
-2.37
-5.91
-10.06
-14.84
-19.88
-24.60
-28.50
-31.51
-34.03
-36.83
-40.74
-46.37
-53.77
-62.38
-70.94
-77.73
-80.87
-78.75
-70.59
-56.74
-38.72
-18.85
0.43
17.17
30.28
39.54
45.25
47.92
47.99
45.96
42.46
38.37
34.65
32.13
31.12
31.43
32.45
33.48
34.07
34.13
33.80
33.25
32.50
31.31
29.36
26.44
22.58
18.13
13.55
9.22
5.29
1.66
-1.97
-5.90
-10.26
-14.98
-19.85
-24.57
-28.91
-32.77
-36.22
-39.61
-43.44
-48.31
-54.65
-62.38
-70.68
-77.95
-82.13
-81.36
-74.56
-61.87
-44.62
-24.94
-5.14
12.86
27.76
39.00
46.47
50.41
51.30
49.78
46.72
43.07
39.69
37.21
35.92
35.72
36.26
37.09
37.80
38.16
38.13
37.75
37.10
36.10
34.56
32.19
28.78
24.35
19.25
14.03
9.25
5.16
1.62
-1.88
-5.88
-10.70
-16.18
-21.78
-26.85
-31.00
-34.26
-37.17
-40.48
-44.91
-50.87
-58.28
-66.51
-74.36
-80.15
-82.09
-78.69
-69.27
-54.35
-35.58
-15.31
4.07
20.78
33.86
43.13
48.85
51.44
51.37
49.19
45.71
41.90
38.75
36.90
36.50
37.17
38.24
39.12
39.51
39.45
39.13
38.66
37.89
36.53
34.25
30.97
26.88
22.33
17.72
13.25
8.93
4.62
0.11
-4.77
-10.04
-15.60
-21.19
-26.46
-31.11
-35.02
-38.36
-41.62
-45.54
-50.83
-57.80
-66.07
-74.38
-80.85
-83.36
-80.30
-71.08
-56.44
-38.13
-18.43
0.55
17.27
30.89
41.12
47.93
51.50
52.18
50.55
47.46
43.89
40.76
38.70
37.96
38.35
39.40
40.51
41.23
41.31
40.76
39.71
38.27
36.40
33.91
30.63
26.50
21.74
16.74
11.89
7.40
3.18
-1.05
-5.61
-10.66
-16.07
-21.50
-26.57
-30.99
-34.77
-38.21
-41.84
-46.26
-51.93
-58.97
-66.92
-74.65
-80.51
-82.68
-79.67
-70.88
-56.83
-39.07
-19.76
-1.03
15.45
28.76
38.63
45.18
48.73
49.64
48.40
45.63
42.11
38.66
35.91
34.22
33.58
33.73
34.33
35.04
35.62
35.80
35.32
33.89
31.36
27.77
23.39
18.67
14.00
9.61
5.50
1.49
-2.67
-7.17
-12.04
-17.17
-22.34
-27.32
-31.95
-36.21
-40.25
-44.44
-49.25
-55.14
-62.23
-69.97
-77.06
-81.65
-81.84
-76.37
-65.17
-49.39
-31.04
-12.29
5.09
20.07
32.15
41.21
47.17
50.00
49.96
47.65
44.03
40.22
37.14
35.33
34.82
35.28
36.13
36.84
37.03
36.50
35.25
33.41
31.12
28.48
25.50
22.12
18.24
13.81
8.86
3.51
-2.05
-7.62
-13.02
-18.13
-22.90
-27.34
-31.52
-35.57
-39.75
-44.45
-50.11
-57.05
-65.11
-73.44
-80.41
-83.98
-82.33
-74.48
-60.75
-42.72
-22.75
-3.21
14.09
28.23
39.04
46.76
51.75
54.33
54.79
53.57
51.34
48.84
46.74
45.42
44.87
44.80
44.84
44.70
44.28
43.56
42.52
41.03
38.88
35.94
32.19
27.83
23.16
18.45
13.86
9.37
4.80
-0.08
-5.42
-11.19
-17.19
-23.06
-28.45
-33.15
-37.25
-41.14
-45.49
-51.00
-58.17
-66.93
-76.45
-85.09
-90.74
-91.35
-85.61
-73.47
-56.20
-36.04
-15.48
3.42
19.47
32.33
42.17
49.26
53.79
55.89
55.84
54.24
51.98
49.95
48.79
48.64
49.19
49.84
50.05
49.52
48.34
46.79
45.24
43.84
42.44
40.65
37.97
34.10
29.08
23.38
17.70
12.65
8.56
5.24
2.17
-1.36
-5.80
-11.22
-17.26
-23.28
-28.67
-33.15
-36.81
-40.11
-43.67
-48.08
-53.69
-60.62
-68.61
-76.93
-84.35
-89.18
-89.65
-84.39
-73.01
-56.36
-36.39
-15.54
3.91
20.52
33.74
43.75
51.00
55.87
58.54
59.19
58.18
56.18
54.02
52.43
51.75
51.84
52.16
52.11
51.34
49.88
48.03
46.17
44.45
42.69
40.43
37.19
32.72
27.17
21.02
14.95
9.49
4.92
1.12
-2.28
-5.75
-9.62
-13.99
-18.70
-23.44
-27.86
-31.72
-35.02
-37.98
-41.02
-44.67
-49.39
-55.44
-62.70
-70.54
-77.83
-83.06
-84.64
-81.33
-72.65
-59.06
-41.97
-23.35
-5.22
10.81
23.80
33.47
40.00
43.78
45.27
44.96
43.45
41.41
39.48
38.14
37.57
37.61
37.94
38.25
38.40
38.42
38.38
38.31
37.96
36.98
34.97
31.78
27.53
22.60
17.47
12.45
7.63
2.86
-2.04
-7.16
-12.43
-17.65
-22.57
-27.02
-30.96
-34.48
-37.81
-41.30
-45.43
-50.63
-57.12
-64.59
-72.00
-77.68
-79.73
-76.63
-67.86
-54.08
-36.98
-18.66
-1.09
14.41
27.20
37.10
44.17
48.51
50.30
49.89
47.88
45.01
42.05
39.54
37.75
36.67
36.15
36.01
36.06
36.17
36.12
35.63
34.36
32.06
28.62
24.25
19.33
14.33
9.61
5.32
1.37
-2.49
-6.54
-10.96
-15.74
-20.70
-25.53
-29.91
-33.65
-36.80
-39.68
-42.93
-47.22
-53.04
-60.28
-68.13
-74.99
-78.94
-78.29
-72.09
-60.51
-44.76
-26.73
-8.48
8.25
22.32
33.22
40.96
45.83
48.24
48.64
47.47
45.28
42.62
40.10
38.22
37.22
36.99
37.17
37.33
37.13
36.51
35.60
34.53
33.34
31.86
29.81
26.94
23.18
18.66
13.73
8.84
4.39
0.57
-2.71
-5.83
-9.27
-13.38
-18.17
-23.30
-28.16
-32.23
-35.31
-37.63
-39.73
-42.30
-45.92
-50.97
-57.44
-64.86
-72.24
-78.05
-80.55
-78.22
-70.30
-57.15
-40.13
-21.27
-2.66
14.10
28.06
38.96
46.92
52.17
54.95
55.50
54.14
51.44
48.14
45.00
42.59
41.17
40.56
40.41
40.36
40.20
39.93
39.64
39.32
38.79
37.66
35.59
32.41
28.26
23.43
18.38
13.46
8.91
4.79
1.03
-2.54
-6.09
-9.84
-13.93
-18.40
-23.15
-27.97
-32.53
-36.57
-40.01
-42.98
-45.84
-49.13
-53.39
-58.95
-65.67
-72.81
-79.05
-82.71
-82.23
-76.65
-65.91
-50.93
-33.34
-15.07
2.12
16.87
28.36
36.28
40.71
42.04
40.95
38.29
34.95
31.73
29.20
27.64
27.06
27.20
27.71
28.25
28.59
28.63
28.43
28.01
27.36
26.33
24.68
22.24
18.98
15.08
10.91
6.84
3.10
-0.34
-3.74
-7.41
-11.58
-16.21
-21.09
-25.89
-30.39
-34.54
-38.52
-42.65
-47.31
-52.82
-59.31
-66.48
-73.51
-79.02
-81.29
-78.83
-70.91
-57.91
-41.28
-23.11
-5.44
10.26
23.36
33.77
41.61
46.92
49.61
49.72
47.62
44.09
40.19
36.83
34.55
33.44
33.22
33.52
34.03
34.56
34.92
34.88
34.15
32.48
29.77
26.13
21.86
17.35
12.94
8.81
5.01
1.36
-2.40
-6.56
-11.27
-16.52
-22.03
-27.39
-32.19
-36.20
-39.58
-42.78
-46.52
-51.45
-57.91
-65.60
-73.51
-79.98
-83.17
-81.53
-74.34
-61.98
-45.76
-27.59
-9.43
7.15
21.18
32.21
40.15
45.18
47.57
47.78
46.41
44.19
41.84
39.89
38.63
38.03
37.89
37.91
37.90
37.75
37.46
37.05
36.47
35.53
34.00
31.68
28.54
24.75
20.60
16.42
12.37
8.44
4.38
-0.08
-5.09
-10.60
-16.28
-21.72
-26.55
-30.70
-34.38
-38.11
-42.52
-48.22
-55.50
-64.15
-73.22
-81.16
-86.03
-86.04
-80.17
-68.54
-52.45
-33.96
-15.27
1.83
16.24
27.52
35.64
40.75
43.12
43.13
41.39
38.69
35.89
33.69
32.55
32.54
33.42
34.77
36.15
37.27
37.97
38.23
38.05
37.35
35.96
33.72
30.58
26.71
22.47
18.32
14.60
11.40
8.50
5.45
1.80
-2.71
-8.01
-13.68
-19.11
-23.77
-27.44
-30.32
-32.98
-36.19
-40.63
-46.69
-54.16
-62.20
-69.32
-73.70
-73.62
-68.00
-56.81
-41.17
-23.00
-4.54
12.29
26.19
36.59
43.50
47.18
48.04
46.57
43.42
39.38
35.42
32.39
30.80
30.67
31.50
32.55
33.20
33.17
32.63
31.94
31.35
30.81
29.92
28.20
25.39
21.62
17.37
13.14
9.24
5.56
1.73
-2.62
-7.61
-13.01
-18.31
-23.04
-26.93
-30.04
-32.63
-35.09
-37.79
-41.11
-45.38
-50.79
-57.09
-63.47
-68.40
-70.09
-66.94
-58.21
-44.35
-26.87
-7.89
10.49
26.63
39.55
48.85
54.51
56.75
56.02
53.02
48.68
44.04
40.01
37.11
35.41
34.59
34.14
33.66
32.95
32.09
31.24
30.54
29.88
28.98
27.41
24.81
21.02
16.12
10.51
4.60
-1.20
-6.65
-11.73
-16.57
-21.25
-25.81
-30.11
-33.94
-37.16
-39.79
-42.09
-44.48
-47.49
-51.57
-56.90
-63.26
-69.86
-75.39
-78.21
-76.70
-69.86
-57.58
-40.92
-21.82
-2.59
14.76
28.87
39.27
46.10
49.77
50.72
49.37
46.23
42.01
37.61
33.89
31.41
30.26
30.14
30.55
31.01
31.26
31.15
30.67
29.74
28.20
25.93
22.85
19.06
14.78
10.27
5.73
1.23
-3.31
-7.99
-12.81
-17.66
-22.29
-26.51
-30.24
-33.65
-37.12
-41.16
-46.19
-52.37
-59.37
-66.25
-71.50
-73.35
-70.33
-61.76
-48.14
-31.05
-12.71
4.77
19.87
31.88
40.80
46.84
50.26
51.23
50.01
47.16
43.55
40.10
37.54
36.08
35.49
35.35
35.32
35.32
35.44
35.69
35.85
35.44
33.99
31.23
27.33
22.74
17.96
13.33
8.91
4.53
0.03
-4.67
-9.50
-14.33
-18.96
-23.28
-27.20
-30.76
-34.10
-37.52
-41.53
-46.66
-53.23
-61.04
-69.12
-75.75
-78.96
-77.10
-69.54
-56.85
-40.66
-23.04
-5.91
9.44
22.32
32.45
39.75
44.21
45.95
45.39
43.30
40.62
38.21
36.61
35.95
36.05
36.58
37.27
37.97
38.66
39.34
39.95
40.29
40.06
38.97
36.82
33.63
29.68
25.48
21.56
18.33
15.88
13.92
11.90
9.21
5.47
0.70
-4.67
-10.06
-14.93
-19.07
-22.69
-26.31
-30.59
-36.13
-43.18
-51.54
-60.32
-68.08
-73.07
-73.64
-68.84
-58.69
-44.27
-27.40
-10.10
5.92
19.60
30.45
38.44
43.68
46.36
46.73
45.27
42.67
39.79
37.40
35.98
35.53
35.71
35.99
35.97
35.48
34.59
33.43
32.03
30.28
27.96
24.89
21.04
16.59
11.85
7.20
2.94
-0.81
-4.15
-7.41
-10.95
-15.03
-19.66
-24.54
-29.21
-33.23
-36.44
-39.01
-41.41
-44.25
-48.14
-53.48
-60.31
-68.15
-75.91
-81.93
-84.37
-81.69
-73.19
-59.31
-41.58
-22.13
-3.16
13.64
27.24
37.32
44.01
47.66
48.77
47.89
45.70
42.94
40.32
38.40
37.40
37.27
37.64
38.10
38.32
38.21
37.89
37.51
37.06
36.29
34.72
31.94
27.80
22.57
16.86
11.34
6.45
2.28
-1.50
-5.33
-9.57
-14.35
-19.49
-24.67
-29.53
-33.91
-37.79
-41.41
-45.19
-49.70
-55.47
-62.78
-71.29
-79.86
-86.64
-89.56
-86.97
-78.29
-64.19
-46.35
-26.88
-7.69
9.86
24.95
37.17
46.32
52.33
55.35
55.78
54.22
51.41
48.08
44.86
42.25
40.52
39.75
39.75
40.19
40.73
41.12
41.24
41.05
40.47
39.32
37.32
34.26
30.10
25.07
19.63
14.25
9.27
4.71
0.25
-4.55
-9.99
-16.00
-22.15
-27.83
-32.55
-36.17
-38.93
-41.43
-44.30
-48.15
-53.42
-60.25
-68.32
-76.61
-83.45
-86.72
-84.56
-75.98
-61.36
-42.43
-21.67
-1.59
16.00
30.19
40.84
48.19
52.51
54.03
53.10
50.35
46.75
43.37
41.07
40.17
40.36
40.95
41.22
40.77
39.66
38.24
36.90
35.82
34.85
33.62
31.76
29.01
25.34
20.95
16.16
11.37
6.91
3.00
-0.40
-3.55
-6.84
-10.62
-14.96
-19.63
-24.18
-28.22
-31.61
-34.53
-37.48
-41.01
-45.60
-51.50
-58.64
-66.51
-74.08
-79.86
-82.14
-79.46
-71.14
-57.61
-40.39
-21.64
-3.52
12.34
25.12
34.73
41.39
45.43
47.08
46.62
44.52
41.52
38.52
36.35
35.46
35.79
36.94
38.35
39.54
40.28
40.51
40.23
39.44
38.08
36.09
33.50
30.41
26.92
23.17
19.27
15.39
11.68
8.23
4.95
1.63
-2.06
-6.35
-11.20
-16.32
-21.24
-25.57
-29.17
-32.25
-35.26
-38.85
-43.56
-49.73
-57.25
-65.49
-73.22
-78.82
-80.64
-77.44
-68.80
-55.30
-38.44
-20.21
-2.66
12.66
24.81
33.56
39.16
42.03
42.65
41.46
38.98
35.81
32.65
30.13
28.62
28.12
28.29
28.70
29.03
29.21
29.33
29.46
29.45
28.94
27.57
25.08
21.55
17.34
12.96
8.84
5.20
1.98
-1.05
-4.21
-7.75
-11.86
-16.54
-21.63
-26.85
-31.88
-36.46
-40.59
-44.49
-48.68
-53.67
-59.68
-66.37
-72.69
-77.08
-77.89
-73.94
-64.95
-51.62
-35.45
-18.21
-1.55
13.29
25.51
34.71
40.72
43.63
43.79
41.84
38.56
34.76
31.17
28.32
26.50
25.81
26.18
27.35
28.91
30.36
31.19
31.07
29.87
27.72
24.83
21.47
17.83
14.01
10.06
5.97
1.70
-2.84
-7.68
-12.77
-17.91
-22.79
-27.12
-30.75
-33.86
-36.93
-40.61
-45.49
-51.79
-59.13
-66.44
-72.16
-74.55
-72.21
-64.51
-51.88
-35.65
-17.72
-0.07
15.73
28.66
38.31
44.64
47.85
48.35
46.68
43.55
39.80
36.22
33.42
31.67
30.93
30.90
31.22
31.57
31.77
31.73
31.33
30.42
28.85
26.51
23.45
19.87
16.04
12.19
8.39
4.50
0.24
-4.66
-10.25
-16.36
-22.51
-28.18
-33.02
-36.98
-40.40
-43.87
-48.06
-53.51
-60.41
-68.41
-76.54
-83.23
-86.60
-84.92
-77.23
-63.72
-45.80
-25.73
-5.84
12.02
26.87
38.50
47.14
53.00
56.22
56.85
55.14
51.67
47.32
43.07
39.65
37.37
36.10
35.42
34.91
34.33
33.66
32.95
32.16
31.09
29.41
26.88
23.43
19.29
14.80
10.25
5.69
0.96
-4.18
-9.84
-15.85
-21.76
-27.10
-31.50
-34.97
-37.87
-40.78
-44.36
-49.12
-55.25
-62.42
-69.69
-75.54
-78.15
-75.87
-67.83
-54.38
-37.13
-18.43
-0.65
14.49
26.30
34.89
40.79
44.41
45.95
45.52
43.37
40.16
36.79
34.11
32.65
32.39
32.95
33.79
34.48
34.82
34.71
34.07
32.73
30.43
27.04
22.59
17.40
11.97
6.73
1.97
-2.31
-6.25
-10.09
-13.93
-17.73
-21.37
-24.70
-27.70
-30.44
-33.14
-36.16
-39.91
-44.84
-51.24
-58.96
-67.15
-74.18
-77.96
-76.55
-68.87
-55.17
-37.01
-16.80
3.01
20.52
34.63
45.02
51.85
55.48
56.42
55.27
52.79
49.83
47.15
45.31
44.54
44.77
45.70
46.93
48.03
48.64
48.54
47.64
45.95
43.52
40.30
36.20
31.26
25.72
20.07
14.92
10.67
7.36
4.56
1.56
-2.22
-7.00
-12.52
-18.22
-23.52
-28.16
-32.21
-36.12
-40.46
-45.78
-52.37
-60.05
-68.09
-75.10
-79.32
-79.01
-73.00
-61.14
-44.50
-25.07
-5.22
12.95
28.04
39.44
47.20
51.66
53.22
52.38
49.78
46.27
42.85
40.40
39.41
39.82
41.09
42.54
43.61
44.11
44.17
44.03
43.74
43.08
41.62
38.92
34.90
29.83
24.31
18.96
14.12
9.78
5.58
1.08
-3.98
-9.55
-15.35
-20.97
-26.10
-30.62
-34.68
-38.60
-42.83
-47.89
-54.18
-61.83
-70.44
-78.87
-85.38
-88.00
-85.12
-76.07
-61.38
-42.70
-22.30
-2.42
15.19
29.49
40.07
46.95
50.35
50.69
48.55
44.76
40.29
36.13
32.97
31.16
30.65
31.09
32.05
33.11
33.94
34.28
33.91
32.67
30.50
27.46
23.74
19.57
15.17
10.65
6.08
1.43
-3.34
-8.28
-13.41
-18.64
-23.85
-28.81
-33.35
-37.42
-41.30
-45.52
-50.70
-57.33
-65.36
-73.94
-81.49
-85.98
-85.54
-79.08
-66.66
-49.52
-29.68
-9.31
9.72
26.15
39.26
48.73
54.49
56.76
56.08
53.36
49.68
46.09
43.32
41.63
40.95
40.95
41.29
41.72
42.07
42.24
42.07
41.37
39.89
37.41
33.84
29.28
24.08
18.69
13.56
8.90
4.58
0.19
-4.71
-10.37
-16.60
-22.91
-28.71
-33.60
-37.67
-41.40
-45.50
-50.69
-57.47
-65.87
-75.34
-84.64
-91.91
-94.97
-91.97
-81.99
-65.52
-44.43
-21.41
0.80
20.14
35.55
46.90
54.56
58.99
60.61
59.82
57.24
53.77
50.48
48.20
47.33
47.56
48.15
48.32
47.65
46.26
44.65
43.36
42.52
41.80
40.56
38.16
34.32
29.26
23.52
17.74
12.44
7.80
3.70
-0.17
-4.27
-8.89
-14.16
-19.93
-25.82
-31.31
-36.05
-39.95
-43.28
-46.65
-50.86
-56.60
-64.22
-73.43
-83.09
-91.31
-95.79
-94.49
-86.31
-71.56
-51.86
-29.75
-7.80
11.96
28.41
41.22
50.50
56.48
59.35
59.40
57.15
53.48
49.43
45.97
43.78
43.05
43.55
44.72
45.98
46.82
46.95
46.31
45.01
43.24
41.13
38.64
35.62
31.85
27.22
21.83
16.04
10.39
5.37
1.26
-1.98
-4.74
-7.56
-10.99
-15.34
-20.60
-26.43
-32.20
-37.36
-41.53
-44.75
-47.46
-50.41
-54.46
-60.25
-67.93
-76.91
-85.79
-92.51
-94.82
-90.90
-80.03
-62.88
-41.42
-18.37
3.64
22.60
37.51
48.21
55.02
58.45
59.04
57.40
54.26
50.47
46.89
44.22
42.76
42.43
42.83
43.44
43.81
43.72
43.16
42.30
41.33
40.29
39.04
37.27
34.64
30.93
26.16
20.62
14.78
9.19
4.26
0.23
-2.97
-5.71
-8.50
-11.88
-16.15
-21.28
-26.86
-32.33
-37.20
-41.29
-44.80
-48.18
-51.96
-56.59
-62.33
-69.27
-77.05
-84.84
-91.16
-94.11
-91.81
-83.13
-68.20
-48.55
-26.69
-5.32
13.39
28.24
38.97
45.89
49.47
50.13
48.31
44.63
40.03
35.65
32.52
31.21
31.58
32.92
34.29
34.99
34.82
34.07
33.20
32.54
32.04
31.30
29.77
27.03
23.02
18.04
12.64
7.39
2.74
-1.15
-4.40
-7.34
-10.39
-13.88
-17.92
-22.39
-26.98
-31.33
-35.21
-38.68
-42.00
-45.68
-50.25
-56.08
-63.21
-71.11
-78.67
-84.23
-85.97
-82.35
-72.68
-57.41
-38.07
-16.89
3.83
22.23
37.21
48.35
55.69
59.51
60.19
58.24
54.42
49.69
45.08
41.45
39.27
38.51
38.75
39.38
39.84
39.81
39.23
38.21
36.90
35.31
33.29
30.61
27.04
22.62
17.58
12.41
7.59
3.44
-0.01
-3.04
-6.11
-9.68
-14.02
-19.11
-24.70
-30.34
-35.51
-39.82
-43.16
-45.77
-48.24
-51.34
-55.85
-62.21
-70.36
-79.58
-88.42
-94.93
-96.98
-92.91
-82.01
-64.93
-43.56
-20.60
1.22
19.84
34.23
44.34
50.75
54.16
55.23
54.41
52.19
49.13
45.98
43.46
42.05
41.85
42.53
43.53
44.31
44.53
44.19
43.42
42.40
41.18
39.64
37.53
34.62
30.81
26.15
20.86
15.32
9.92
5.02
0.80
-2.86
-6.34
-10.18
-14.81
-20.31
-26.37
-32.43
-37.92
-42.57
-46.50
-50.17
-54.18
-59.13
-65.48
-73.43
-82.78
-92.58
-101.19
-106.39
-106.09
-99.06
-85.43
-66.84
-45.93
-25.48
-7.74
6.08
15.74
21.53
23.91
23.25
19.95
14.57
7.99
1.27
-4.59
-8.93
-11.55
-12.51
-11.84
-9.27
-4.32
3.33
13.42
24.79
35.62
43.94
48.30
48.21
44.22
37.65
30.11
23.14
17.83
14.71
13.70
14.20
15.34
16.21
16.17
14.96
12.73
9.88
6.83
3.84
0.94
-2.04
-5.43
-9.49
-14.23
-19.16
-23.17
-24.73
-22.30
-14.94
-2.80
12.82
29.77
45.72
58.84
68.18
73.64
75.71
75.01
72.14
67.61
61.94
55.78
49.82
44.67
40.61
37.56
35.13
32.81
30.21
27.25
24.07
20.95
18.10
15.63
13.47
11.46
9.43
7.23
4.76
1.93
-1.34
-5.11
-9.47
-14.41
-19.86
-25.63
-31.46
-37.05
-42.22
-46.96
-51.42
-55.83
-60.27
-64.48
-67.73
-68.93
-66.94
-60.92
-50.74
-37.11
-21.39
-5.33
9.46
21.80
31.08
37.16
40.16
40.33
37.99
33.67
28.10
22.23
16.99
13.04
10.62
9.48
9.11
9.00
8.89
8.87
9.23
10.25
11.92
13.87
15.48
16.04
14.99
12.07
7.30
0.93
-6.56
-14.55
-22.20
-28.62
-32.97
-34.81
-34.23
-31.81
-28.30
-24.28
-19.88
-14.84
-8.82
-1.75
5.94
13.43
19.81
24.50
27.42
28.93
29.56
29.75
29.75
29.67
29.54
29.39
29.23
28.93
28.26
27.01
25.04
22.43
19.48
16.50
13.77
11.42
9.45
7.77
6.28
4.82
3.21
1.24
-1.25
-4.29
-7.80
-11.63
-15.72
-20.15
-25.16
-31.04
-37.86
-45.26
-52.34
-57.74
-59.91
-57.58
-50.16
-37.98
-22.27
-4.85
12.30
27.39
39.15
46.93
50.65
50.76
48.04
43.47
38.01
32.46
27.39
23.06
19.51
16.65
14.33
12.37
10.66
9.13
7.74
6.45
5.12
3.44
1.06
-2.35
-6.89
-12.34
-18.16
-23.73
-28.63
-32.82
-36.75
-41.18
-46.88
-54.21
-62.88
-71.75
-79.05
-82.73
-81.04
-73.10
-59.28
-41.12
-20.97
-1.34
15.74
29.10
38.42
43.98
46.28
45.86
43.21
38.87
33.55
28.06
23.19
19.52
17.24
16.21
16.01
16.07
15.85
14.88
12.88
9.78
5.71
0.95
-4.18
-9.41
-14.60
-19.75
-24.94
-30.35
-36.27
-43.06
-51.03
-60.07
-69.33
-77.17
-81.44
-80.14
-72.20
-57.99
-39.31
-18.80
0.89
17.78
30.87
40.06
45.65
48.11
47.74
44.84
39.84
33.47
26.75
20.75
16.30
13.74
12.81
12.70
12.46
11.22
8.50
4.26
-1.18
-7.34
-13.79
-20.27
-26.70
-33.17
-39.88
-47.10
-55.15
-64.23
-74.33
-84.86
-94.49
-101.20
-102.73
-97.26
-84.09
-64.08
-39.43
-13.12
11.98
33.80
51.33
64.48
73.75
79.74
83.06
84.25
83.82
82.30
80.11
77.51
74.58
71.26
67.47
63.20
58.58
53.77
48.89
43.89
38.51
32.44
25.42
17.40
8.63
-0.40
-9.10
-16.95
-23.73
-29.63
-35.21
-41.32
-48.74
-57.84
-68.19
-78.45
-86.55
-90.21
-87.70
-78.44
-63.27
-44.20
-23.79
-4.46
12.14
25.18
34.53
40.47
43.44
43.89
42.36
39.41
35.68
31.75
28.07
24.92
22.33
20.15
18.04
15.65
12.66
8.93
4.54
-0.28
-5.26
-10.19
-14.91
-19.33
-23.25
-26.46
-28.93
-31.04
-33.74
-38.37
-46.15
-57.44
-71.16
-84.65
-94.25
-96.37
-88.64
-70.78
-44.62
-13.60
18.19
46.93
69.67
84.53
90.80
88.94
80.58
68.45
55.98
46.69
43.29
47.09
57.59
72.78
89.71
105.35
117.20
123.73
124.35
119.22
108.92
94.31
76.50
56.82
36.88
18.41
3.05
-7.93
-13.84
-14.70
-11.32
-5.25
1.42
6.47
8.08
5.39
-1.16
-9.94
-18.62
-24.96
-27.44
-25.61
-19.97
-11.63
-1.84
8.28
17.94
26.58
33.77
39.16
42.47
43.53
42.45
39.59
35.56
31.03
26.48
22.08
17.67
12.99
7.78
2.09
-3.79
-9.33
-14.03
-17.51
-19.65
-20.64
-20.89
-21.02
-21.77
-23.92
-28.17
-34.92
-43.99
-54.33
-63.97
-70.32
-70.80
-63.74
-49.11
-28.70
-5.67
16.45
34.72
47.50
54.42
56.04
53.34
47.39
39.29
30.22
21.43
14.05
8.88
6.26
6.14
8.22
12.14
17.37
23.07
28.09
31.06
30.91
27.23
20.43
11.61
2.05
-7.23
-15.71
-23.24
-29.86
-35.71
-40.95
-45.82
-50.59
-55.31
-59.54
-62.27
-62.15
-57.96
-49.19
-36.30
-20.70
-4.28
11.07
23.82
33.05
38.36
39.82
37.82
33.11
26.64
19.44
12.45
6.37
1.59
-1.76
-3.76
-4.61
-4.60
-4.20
-3.93
-4.29
-5.66
-8.11
-11.44
-15.20
-18.97
-22.49
-25.76
-29.02
-32.62
-36.92
-42.12
-48.18
-54.63
-60.52
-64.48
-65.04
-61.03
-52.02
-38.60
-22.34
-5.31
10.44
23.41
32.88
38.79
41.45
41.25
38.55
33.78
27.58
20.81
14.43
9.27
5.76
3.89
3.26
3.31
3.53
3.49
2.94
1.70
-0.39
-3.40
-7.27
-11.76
-16.49
-21.09
-25.38
-29.45
-33.76
-38.83
-44.95
-51.81
-58.37
-63.02
-64.09
-60.36
-51.51
-38.25
-22.04
-4.75
11.79
26.07
37.06
44.22
47.54
47.41
44.52
39.72
33.85
27.69
21.88
16.98
13.33
11.07
10.07
9.96
10.22
10.30
9.79
8.41
6.09
2.93
-0.89
-5.14
-9.59
-14.04
-18.37
-22.59
-26.88
-31.55
-36.99
-43.36
-50.38
-57.16
-62.18
-63.74
-60.46
-51.82
-38.39
-21.73
-3.91
13.03
27.51
38.57
45.78
49.21
49.24
46.54
41.99
36.55
31.16
26.53
23.06
20.80
19.51
18.78
18.15
17.30
16.10
14.61
12.97
11.26
9.35
6.95
3.70
-0.58
-5.78
-11.47
-17.09
-22.17
-26.51
-30.33
-34.16
-38.65
-44.32
-51.26
-58.95
-66.24
-71.55
-73.23
-70.00
-61.36
-47.75
-30.57
-11.78
6.50
22.47
34.96
43.49
48.15
49.40
47.91
44.50
40.01
35.33
31.23
28.22
26.52
25.95
26.12
26.57
26.88
26.76
26.13
24.98
23.39
21.39
18.97
16.11
12.81
9.16
5.29
1.30
-2.87
-7.36
-12.36
-17.83
-23.48
-28.81
-33.35
-36.94
-39.83
-42.64
-46.12
-50.85
-57.03
-64.27
-71.53
-77.29
-79.82
-77.61
-69.87
-56.88
-39.92
-20.97
-2.18
14.67
28.32
38.20
44.20
46.62
46.01
43.18
39.10
34.84
31.37
29.39
29.14
30.41
32.54
34.71
36.23
36.79
36.56
35.98
35.51
35.33
35.21
34.65
33.14
30.42
26.55
21.89
16.90
11.98
7.38
3.21
-0.58
-4.18
-7.82
-11.76
-16.11
-20.84
-25.69
-30.36
-34.63
-38.49
-42.19
-46.19
-51.04
-57.09
-64.32
-72.08
-79.09
-83.64
-84.03
-79.13
-68.71
-53.61
-35.43
-16.14
2.44
18.87
32.20
41.96
48.03
50.63
50.29
47.79
44.12
40.28
37.19
35.41
35.15
36.16
37.90
39.72
41.10
41.75
41.62
40.78
39.34
37.38
34.94
32.13
29.08
25.94
22.78
19.57
16.21
12.64
8.87
5.06
1.41
-1.92
-4.97
-7.93
-11.09
-14.69
-18.71
-22.89
-26.83
-30.21
-32.98
-35.43
-38.06
-41.34
-45.65
-51.13
-57.73
-65.13
-72.63
-79.08
-82.94
-82.58
-76.89
-65.70
-50.01
-31.72
-13.04
4.11
18.50
29.63
37.52
42.40
44.59
44.53
42.76
40.02
37.15
34.92
33.83
34.02
35.28
37.16
39.17
40.94
42.26
43.07
43.26
42.68
41.18
38.74
35.50
31.82
28.08
24.52
21.15
17.84
14.40
10.80
7.08
3.38
-0.19
-3.57
-6.78
-9.80
-12.64
-15.36
-18.05
-20.82
-23.75
-26.77
-29.78
-32.72
-35.62
-38.76
-42.52
-47.30
-53.26
-60.07
-66.83
-72.11
-74.26
-71.86
-64.28
-51.88
-35.98
-18.42
-1.06
14.63
27.73
37.77
44.62
48.36
49.28
47.97
45.16
41.68
38.31
35.63
34.00
33.53
34.16
35.61
37.50
39.34
40.71
41.31
41.00
39.80
37.84
35.35
32.55
29.68
26.91
24.31
21.79
19.19
16.31
13.02
9.28
5.19
0.92
-3.35
-7.47
-11.35
-15.01
-18.52
-21.97
-25.45
-28.99
-32.58
-36.22
-39.93
-43.82
-48.03
-52.77
-58.20
-64.25
-70.41
-75.70
-78.65
-77.72
-71.80
-60.71
-45.36
-27.55
-9.37
7.34
21.45
32.51
40.55
45.76
48.31
48.44
46.56
43.37
39.74
36.55
34.45
33.67
34.06
35.25
36.78
38.26
39.46
40.22
40.44
39.99
38.73
36.56
33.56
29.88
25.84
21.74
17.81
14.16
10.75
7.45
4.15
0.70
-3.01
-7.02
-11.33
-15.83
-20.27
-24.42
-28.09
-31.26
-34.05
-36.71
-39.49
-42.72
-46.75
-51.87
-58.22
-65.48
-72.68
-78.23
-80.32
-77.43
-68.97
-55.49
-38.60
-20.46
-3.11
11.93
23.92
32.65
38.30
41.12
41.41
39.62
36.38
32.58
29.11
26.67
25.53
25.54
26.27
27.27
28.29
29.20
29.99
30.60
30.86
30.54
29.50
27.71
25.25
22.33
19.16
15.94
12.85
9.96
7.19
4.32
1.03
-2.90
-7.47
-12.41
-17.30
-21.78
-25.70
-29.22
-32.73
-36.71
-41.59
-47.69
-55.02
-63.16
-71.17
-77.54
-80.52
-78.53
-70.80
-57.68
-40.73
-22.20
-4.37
11.05
23.32
32.40
38.67
42.42
43.76
42.71
39.63
35.32
30.94
27.68
26.25
26.70
28.48
30.78
32.91
34.55
35.66
36.35
36.60
36.21
34.93
32.59
29.26
25.25
20.97
16.77
12.85
9.23
5.74
2.17
-1.67
-5.87
-10.39
-15.06
-19.60
-23.70
-27.13
-29.84
-32.08
-34.40
-37.53
-42.17
-48.70
-56.94
-65.93
-74.00
-79.16
-79.58
-74.23
-63.16
-47.57
-29.38
-10.74
6.53
21.18
32.60
40.69
45.65
47.84
47.82
46.25
43.88
41.43
39.46
38.30
37.97
38.27
38.86
39.44
39.79
39.90
39.80
39.54
39.03
37.98
36.04
32.93
28.63
23.48
18.05
12.94
8.50
4.73
1.28
-2.32
-6.46
-11.29
-16.72
-22.45
-28.14
-33.48
-38.30
-42.57
-46.51
-50.56
-55.27
-61.10
-68.10
-75.59
-82.14
-85.85
-84.90
-78.19
-65.79
-48.91
-29.59
-10.07
7.80
22.79
34.34
42.39
47.15
49.01
48.52
46.43
43.50
40.54
38.16
36.78
36.54
37.34
38.86
40.68
42.28
43.24
43.35
42.63
41.28
39.61
37.81
35.89
33.67
30.91
27.44
23.34
18.85
14.35
10.12
6.27
2.64
-1.00
-4.91
-9.19
-13.78
-18.57
-23.38
-28.09
-32.64
-37.04
-41.36
-45.84
-50.95
-57.20
-64.94
-73.96
-83.27
-91.06
-95.18
-93.76
-85.90
-71.95
-53.45
-32.62
-11.69
7.57
24.03
37.13
46.69
52.79
55.72
56.04
54.52
52.05
49.46
47.41
46.28
46.21
47.13
48.79
50.83
52.84
54.45
55.38
55.43
54.49
52.53
49.58
45.75
41.32
36.62
32.00
27.69
23.76
20.07
16.41
12.57
8.46
4.13
-0.29
-4.65
-8.90
-13.13
-17.54
-22.30
-27.41
-32.68
-37.74
-42.29
-46.29
-50.03
-54.12
-59.23
-65.84
-73.96
-82.91
-91.33
-97.39
-99.14
-95.03
-84.49
-68.11
-47.64
-25.43
-3.82
15.42
31.32
43.56
52.17
57.31
59.17
58.18
55.12
51.12
47.47
45.18
44.71
45.88
48.07
50.54
52.82
54.70
56.19
57.28
57.73
57.22
55.40
52.20
47.89
43.01
38.18
33.78
29.90
26.31
22.64
18.60
14.01
9.00
3.81
-1.18
-5.65
-9.46
-12.69
-15.66
-18.79
-22.44
-26.75
-31.61
-36.70
-41.67
-46.31
-50.66
-55.01
-59.85
-65.68
-72.84
-81.21
-89.95
-97.52
-101.86
-100.96
-93.56
-79.61
-60.39
-38.11
-15.32
5.83
23.91
38.27
48.82
55.77
59.41
60.14
58.49
55.25
51.40
47.90
45.53
44.64
45.15
46.61
48.50
50.34
51.84
52.83
53.21
52.84
51.61
49.48
46.55
43.10
39.49
35.98
32.69
29.49
26.09
22.23
17.78
12.90
7.94
3.31
-0.76
-4.28
-7.59
-11.10
-15.17
-19.93
-25.23
-30.80
-36.30
-41.53
-46.47
-51.26
-56.27
-62.00
-68.93
-77.13
-85.91
-93.70
-98.27
-97.42
-89.77
-75.40
-55.82
-33.52
-11.12
9.29
26.47
39.93
49.57
55.42
57.64
56.63
53.20
48.49
43.75
40.05
38.02
37.73
38.80
40.59
42.43
43.80
44.43
44.25
43.34
41.85
39.90
37.56
34.85
31.78
28.34
24.50
20.26
15.65
10.74
5.70
0.73
-3.97
-8.26
-12.15
-15.75
-19.27
-22.94
-26.91
-31.24
-35.82
-40.48
-45.01
-49.36
-53.65
-58.29
-63.80
-70.62
-78.71
-87.34
-94.98
-99.58
-99.12
-92.27
-78.88
-60.10
-38.08
-15.30
5.96
24.12
38.36
48.53
54.86
57.79
57.86
55.74
52.20
48.16
44.52
42.07
41.23
41.98
43.86
46.11
48.02
49.07
49.15
48.41
47.12
45.42
43.28
40.52
37.01
32.77
27.99
22.97
17.98
13.17
8.59
4.23
0.04
-4.01
-8.03
-12.17
-16.65
-21.55
-26.83
-32.24
-37.42
-42.08
-46.12
-49.72
-53.36
-57.68
-63.32
-70.71
-79.72
-89.40
-97.97
-103.09
-102.53
-94.92
-80.31
-60.19
-37.06
-13.67
7.76
25.86
40.10
50.48
57.20
60.56
60.94
58.95
55.43
51.36
47.68
45.08
43.88
44.03
45.13
46.69
48.21
49.35
49.92
49.87
49.23
47.97
46.01
43.26
39.67
35.31
30.36
25.10
19.85
14.85
10.24
6.02
2.07
-1.79
-5.75
-9.92
-14.35
-18.99
-23.70
-28.35
-32.82
-37.06
-41.09
-45.00
-48.99
-53.36
-58.53
-64.94
-72.86
-81.98
-91.17
-98.48
-101.53
-98.26
-87.69
-70.37
-48.30
-24.28
-1.14
18.96
34.87
46.29
53.49
57.03
57.61
56.00
53.09
49.85
47.08
45.35
44.83
45.29
46.32
47.45
48.39
49.10
49.63
50.01
50.13
49.66
48.24
45.68
42.07
37.79
33.32
29.04
25.06
21.22
17.24
12.92
8.24
3.44
-1.19
-5.35
-8.99
-12.26
-15.46
-18.94
-22.92
-27.45
-32.39
-37.48
-42.46
-47.15
-51.56
-55.91
-60.65
-66.35
-73.44
-81.87
-90.74
-98.34
-102.38
-100.75
-92.19
-76.85
-56.27
-32.98
-9.71
11.26
28.51
41.53
50.44
55.74
58.02
57.87
55.89
52.78
49.32
46.28
44.28
43.61
44.15
45.43
46.92
48.15
48.97
49.42
49.61
49.52
48.93
47.48
44.87
41.06
36.35
31.27
26.48
22.41
19.12
16.32
13.46
10.14
6.24
2.05
-1.99
-5.57
-8.71
-11.81
-15.37
-19.73
-24.83
-30.28
-35.58
-40.32
-44.46
-48.18
-51.84
-55.88
-60.75
-66.88
-74.44
-83.06
-91.50
-97.76
-99.50
-94.82
-83.03
-65.02
-42.99
-19.77
2.01
20.58
35.12
45.60
52.34
55.80
56.47
54.97
52.07
48.64
45.50
43.21
41.99
41.76
42.24
43.11
44.15
45.19
46.11
46.76
46.93
46.37
44.87
42.30
38.76
34.50
29.87
25.25
20.92
16.94
13.23
9.54
5.70
1.61
-2.62
-6.81
-10.80
-14.59
-18.34
-22.30
-26.66
-31.40
-36.33
-41.13
-45.53
-49.47
-53.15
-57.06
-61.81
-67.91
-75.52
-84.10
-92.35
-98.34
-99.97
-95.60
-84.63
-67.80
-47.00
-24.77
-3.57
14.76
29.23
39.66
46.36
49.81
50.50
48.97
45.86
41.96
38.18
35.33
33.89
33.91
34.98
36.50
37.90
38.86
39.27
39.18
38.70
37.95
37.03
36.08
35.26
34.58
33.88
32.73
30.65
27.24
22.37
16.33
9.60
2.80
-3.58
-9.25
-14.12
-18.20
-21.55
-24.25
-26.35
-28.01
-29.45
-30.94
-32.77
-35.15
-38.28
-42.45
-48.09
-55.66
-65.31
-76.44
-87.44
-95.94
-99.37
-95.90
-85.15
-68.31
-47.71
-26.05
-5.66
11.95
26.03
36.42
43.29
47.00
48.08
47.28
45.42
43.30
41.58
40.65
40.65
41.50
42.96
44.71
46.41
47.79
48.63
48.86
48.43
47.33
45.55
43.05
39.88
36.19
32.20
28.22
24.51
21.16
18.04
14.86
11.36
7.43
3.22
-0.96
-4.77
-8.12
-11.19
-14.35
-17.96
-22.22
-26.98
-31.92
-36.71
-41.16
-45.37
-49.64
-54.45
-60.32
-67.62
-76.39
-86.02
-95.10
-101.59
-103.21
-98.22
-86.11
-67.85
-45.68
-22.38
-0.51
18.24
33.11
44.07
51.46
55.66
57.05
56.11
53.52
50.14
46.86
44.43
43.24
43.29
44.24
45.56
46.73
47.44
47.58
47.18
46.31
44.93
42.92
40.17
36.66
32.51
27.97
23.33
18.79
14.44
10.24
6.11
1.99
-2.09
-6.05
-9.83
-13.46
-17.06
-20.78
-24.78
-29.10
-33.63
-38.15
-42.43
-46.33
-49.92
-53.61
-58.02
-63.83
-71.38
-80.30
-89.30
-96.34
-99.07
-95.68
-85.49
-69.21
-48.80
-26.75
-5.44
13.40
28.84
40.61
48.80
53.65
55.52
54.83
52.21
48.47
44.53
41.28
39.37
39.07
40.16
42.08
44.10
45.56
46.10
45.76
44.82
43.59
42.17
40.40
37.90
34.41
29.89
24.69
19.38
14.53
10.45
7.07
3.98
0.61
-3.54
-8.65
-14.61
-21.03
-27.36
-33.11
-37.94
-41.77
-44.84
-47.69
-51.12
-55.98
-62.84
-71.69
-81.58
-90.65
-96.49
-96.82
-90.26
-76.79
-57.84
-35.81
-13.36
7.29
24.77
38.56
48.66
55.30
58.77
59.36
57.61
54.33
50.56
47.32
45.35
44.88
45.64
47.01
48.35
49.16
49.24
48.64
47.51
46.07
44.36
42.35
39.90
36.84
33.05
28.56
23.61
18.49
13.54
8.96
4.77
0.81
-3.16
-7.41
-12.09
-17.26
-22.76
-28.35
-33.69
-38.50
-42.66
-46.30
-49.84
-53.92
-59.23
-66.27
-74.98
-84.56
-93.38
-99.26
-100.06
-94.29
-81.69
-63.31
-41.32
-18.33
3.25
21.70
36.17
46.53
53.11
56.44
57.10
55.74
53.07
49.90
47.05
45.17
44.64
45.39
46.93
48.57
49.70
49.96
49.35
48.14
46.61
44.97
43.17
41.00
38.21
34.65
30.34
25.52
20.51
15.64
11.16
7.11
3.38
-0.26
-4.08
-8.35
-13.16
-18.46
-24.02
-29.49
-34.49
-38.85
-42.59
-46.07
-49.85
-54.54
-60.64
-68.27
-76.99
-85.60
-92.31
-95.00
-91.88
-82.05
-65.92
-45.30
-22.74
-0.89
18.27
33.72
45.35
53.51
58.59
60.86
60.50
57.93
53.90
49.50
45.86
43.79
43.44
44.33
45.60
46.41
46.33
45.43
44.17
42.95
41.91
40.74
38.94
36.02
31.80
26.50
20.66
14.89
9.68
5.28
1.61
-1.67
-5.02
-8.92
-13.66
-19.21
-25.27
-31.31
-36.80
-41.46
-45.35
-48.87
-52.65
-57.38
-63.56
-71.29
-80.06
-88.64
-95.13
-97.39
-93.67
-83.19
-66.60
-45.80
-23.38
-1.92
16.68
31.40
41.98
48.60
51.59
51.45
48.85
44.75
40.34
36.72
34.60
34.16
35.00
36.39
37.65
38.38
38.52
38.28
37.90
37.42
36.60
35.05
32.36
28.39
23.32
17.67
12.03
6.89
2.43
-1.56
-5.51
-9.88
-14.89
-20.42
-26.08
-31.41
-36.09
-40.08
-43.67
-47.37
-51.79
-57.51
-64.83
-73.51
-82.54
-90.09
-93.92
-92.02
-83.34
-68.26
-48.51
-26.60
-4.98
14.51
30.87
43.67
52.77
58.10
59.80
58.36
54.78
50.36
46.37
43.67
42.53
42.73
43.69
44.79
45.56
45.77
45.40
44.59
43.51
42.21
40.55
38.23
34.90
30.45
25.08
19.31
13.80
9.04
5.06
1.47
-2.38
-7.04
-12.68
-19.07
-25.65
-31.85
-37.29
-41.92
-45.97
-49.88
-54.20
-59.55
-66.42
-74.94
-84.46
-93.45
-99.65
-100.66
-94.80
-81.79
-62.92
-40.67
-17.86
3.21
21.23
35.81
47.08
55.22
60.25
62.20
61.38
58.58
55.01
51.90
50.10
49.81
50.61
51.78
52.65
52.84
52.31
51.26
49.92
48.39
46.60
44.37
41.40
37.52
32.68
27.06
21.07
15.21
9.91
5.38
1.50
-2.13
-6.03
-10.66
-16.14
-22.25
-28.50
-34.33
-39.37
-43.58
-47.28
-50.96
-55.23
-60.66
-67.64
-76.17
-85.59
-94.40
-100.41
-101.27
-95.26
-82.01
-62.74
-39.90
-16.39
5.39
23.96
38.81
49.99
57.64
61.92
63.01
61.45
58.17
54.41
51.31
49.58
49.36
50.24
51.54
52.57
52.87
52.23
50.72
48.60
46.14
43.62
41.11
38.47
35.40
31.59
26.91
21.56
16.00
10.80
6.36
2.72
-0.44
-3.65
-7.34
-11.80
-16.97
-22.55
-28.14
-33.41
-38.16
-42.41
-46.35
-50.30
-54.67
-59.97
-66.66
-74.90
-84.27
-93.43
-100.25
-102.27
-97.49
-85.15
-66.15
-42.83
-18.21
4.90
24.63
40.17
51.54
59.08
63.21
64.28
62.83
59.64
55.74
52.21
49.85
48.97
49.39
50.56
51.83
52.63
52.69
51.97
50.62
48.81
46.66
44.19
41.33
37.96
34.04
29.58
24.72
19.66
14.62
9.82
5.40
1.38
-2.36
-6.05
-10.01
-14.52
-19.68
-25.33
-31.11
-36.58
-41.37
-45.41
-48.90
-52.31
-56.23
-61.29
-67.92
-76.18
-85.47
-94.38
-100.81
-102.46
-97.49
-85.25
-66.62
-43.81
-19.65
3.18
22.77
38.15
49.13
55.96
59.08
59.07
56.75
53.07
49.13
45.87
43.92
43.40
43.96
44.93
45.61
45.48
44.47
42.85
41.12
39.63
38.42
37.13
35.13
31.86
27.13
21.23
14.87
8.84
3.72
-0.34
-3.65
-6.79
-10.35
-14.66
-19.70
-25.13
-30.52
-35.53
-40.02
-44.08
-48.00
-52.19
-57.13
-63.32
-71.01
-79.92
-88.93
-96.11
-99.13
-95.95
-85.63
-68.71
-47.17
-23.73
-1.07
18.85
35.07
47.37
56.00
61.27
63.51
63.09
60.64
57.01
53.17
50.02
48.14
47.65
48.20
49.19
49.94
50.00
49.27
47.90
46.19
44.36
42.37
39.93
36.70
32.44
27.23
21.49
15.78
10.61
6.15
2.17
-1.84
-6.38
-11.75
-17.82
-24.16
-30.23
-35.56
-40.03
-43.77
-47.16
-50.67
-54.79
-60.07
-66.92
-75.46
-85.14
-94.56
-101.53
-103.65
-99.00
-86.95
-68.38
-45.53
-21.23
1.88
21.95
38.06
50.09
58.31
63.10
64.89
64.21
61.72
58.30
54.83
52.09
50.48
50.05
50.44
51.15
51.69
51.76
51.27
50.31
48.99
47.31
45.19
42.47
39.07
34.98
30.31
25.21
19.85
14.38
8.97
3.81
-0.89
-5.00
-8.61
-12.02
-15.65
-19.91
-24.94
-30.56
-36.28
-41.56
-46.06
-49.78
-53.15
-56.80
-61.46
-67.66
-75.55
-84.69
-93.92
-101.40
-104.89
-102.35
-92.62
-75.93
-53.98
-29.50
-5.49
15.64
32.56
45.01
53.41
58.43
60.60
60.37
58.23
54.88
51.23
48.17
46.30
45.74
46.15
47.00
47.78
48.25
48.40
48.26
47.77
46.70
44.79
41.92
38.20
33.96
29.54
25.15
20.79
16.37
11.85
7.29
2.92
-1.10
-4.76
-8.26
-11.96
-16.14
-20.86
-25.96
-31.12
-36.03
-40.50
-44.55
-48.29
-51.96
-55.86
-60.43
-66.19
-73.58
-82.51
-92.04
-100.20
-104.41
-102.26
-92.46
-75.43
-53.26
-28.99
-5.60
14.81
31.25
43.63
52.28
57.51
59.62
58.96
56.20
52.30
48.33
45.15
43.23
42.57
42.80
43.46
44.11
44.46
44.36
43.81
42.82
41.44
39.64
37.36
34.46
30.84
26.49
21.56
16.33
11.13
6.27
1.87
-2.14
-5.96
-9.85
-14.00
-18.46
-23.15
-27.90
-32.58
-37.03
-41.19
-45.07
-48.78
-52.60
-56.99
-62.56
-69.75
-78.53
-88.05
-96.55
-101.70
-101.23
-93.79
-79.39
-59.49
-36.62
-13.49
7.63
25.38
39.19
49.04
55.10
57.63
57.02
53.93
49.39
44.61
40.71
38.41
37.86
38.63
40.01
41.23
41.77
41.44
40.36
38.81
37.08
35.28
33.29
30.88
27.80
23.99
19.59
14.90
10.27
5.99
2.20
-1.15
-4.24
-7.37
-10.88
-15.04
-19.92
-25.37
-31.02
-36.49
-41.50
-46.02
-50.25
-54.56
-59.41
-65.24
-72.38
-80.84
-89.93
-98.14
-103.23
-102.80
-95.14
-79.99
-58.70
-33.89
-8.58
14.65
34.15
49.24
59.90
66.39
69.11
68.59
65.62
61.26
56.69
52.93
50.65
49.98
50.59
51.85
53.07
53.72
53.62
52.91
51.88
50.75
49.44
47.57
44.67
40.43
34.88
28.52
22.08
16.20
11.21
6.99
3.06
-1.13
-6.01
-11.74
-18.10
-24.64
-30.82
-36.22
-40.70
-44.47
-48.06
-52.20
-57.60
-64.76
-73.72
-83.82
-93.58
-100.87
-103.37
-99.23
-87.73
-69.64
-47.04
-22.67
0.79
21.36
37.97
50.27
58.42
62.77
63.81
62.19
58.84
54.79
51.09
48.47
47.23
47.19
47.86
48.68
49.28
49.51
49.48
49.33
49.07
48.46
47.03
44.25
39.81
33.83
26.93
19.96
13.77
8.75
4.67
0.86
-3.48
-8.80
-15.07
-21.81
-28.43
-34.46
-39.76
-44.43
-48.75
-53.06
-57.84
-63.62
-70.77
-79.10
-87.53
-94.14
-96.62
-93.00
-82.44
-65.54
-44.22
-21.01
1.58
21.62
37.91
49.88
57.40
60.65
60.15
56.80
51.84
46.58
42.17
39.30
38.13
38.34
39.40
40.75
41.91
42.53
42.27
40.95
38.51
35.09
31.02
26.68
22.39
18.22
14.09
9.79
5.13
0.02
-5.52
-11.33
-17.21
-22.91
-28.17
-32.85
-36.95
-40.77
-44.83
-49.82
-56.29
-64.30
-73.11
-81.15
-86.26
-86.31
-79.92
-66.98
-48.79
-27.66
-6.27
13.13
29.10
41.10
49.19
53.70
55.01
53.53
49.79
44.60
38.93
33.81
30.08
28.14
27.92
28.86
30.16
31.06
31.01
29.85
27.74
25.01
21.91
18.55
14.81
10.46
5.31
-0.65
-7.20
-13.94
-20.44
-26.35
-31.53
-36.11
-40.38
-44.82
-49.94
-56.17
-63.75
-72.43
-81.25
-88.59
-92.32
-90.49
-81.92
-66.76
-46.56
-23.75
-0.98
19.62
36.72
49.83
58.88
64.00
65.42
63.54
59.15
53.39
47.58
42.85
39.84
38.56
38.48
38.79
38.72
37.84
36.13
33.87
31.47
29.19
26.98
24.44
21.03
16.26
10.01
2.55
-5.50
-13.42
-20.70
-27.13
-32.88
-38.40
-44.28
-51.12
-59.31
-68.74
-78.56
-87.16
-92.37
-92.14
-85.21
-71.65
-52.86
-31.21
-9.26
10.87
27.84
41.02
50.26
55.64
57.37
55.98
52.36
47.73
43.37
40.20
38.55
38.11
38.16
38.01
37.31
36.09
34.63
33.13
31.49
29.29
26.00
21.27
15.05
7.68
-0.29
-8.28
-15.84
-22.69
-28.81
-34.42
-39.95
-46.00
-53.06
-61.28
-70.05
-78.00
-83.12
-83.37
-77.38
-64.98
-47.34
-26.59
-5.15
14.93
32.27
46.18
56.31
62.52
64.85
63.70
60.01
55.11
50.37
46.77
44.54
43.33
42.46
41.39
39.94
38.25
36.54
34.84
32.91
30.29
26.47
21.16
14.38
6.44
-2.04
-10.35
-17.83
-24.07
-29.12
-33.52
-38.23
-44.29
-52.38
-62.37
-73.12
-82.53
-88.13
-87.72
-80.14
-65.68
-45.89
-23.26
-0.39
20.55
38.18
51.87
61.58
67.58
70.30
70.28
68.17
64.70
60.66
56.76
53.54
51.29
49.98
49.36
49.03
48.52
47.54
45.93
43.64
40.66
36.92
32.42
27.19
21.43
15.44
9.51
3.73
-2.01
-7.96
-14.30
-21.01
-27.79
-34.21
-39.94
-44.88
-49.23
-53.47
-58.21
-64.14
-71.69
-80.78
-90.45
-98.80
-103.31
-101.60
-92.30
-75.61
-53.40
-28.51
-3.92
18.15
36.53
50.99
61.75
69.06
73.03
73.86
72.00
68.36
64.11
60.34
57.77
56.51
56.18
56.21
56.08
55.56
54.69
53.58
52.28
50.70
48.65
45.97
42.54
38.33
33.35
27.69
21.56
15.31
9.44
4.38
0.32
-3.00
-6.20
-10.04
-15.03
-21.16
-27.88
-34.36
-39.95
-44.51
-48.42
-52.43
-57.28
-63.48
-71.19
-80.22
-89.94
-99.17
-106.14
-108.66
-104.81
-93.56
-75.42
-52.38
-27.36
-3.23
17.93
35.15
48.28
57.52
63.05
64.99
63.69
59.97
55.15
50.62
47.46
46.01
45.81
46.02
45.82
44.86
43.29
41.59
40.18
39.06
37.87
35.97
32.88
28.42
22.84
16.71
10.67
5.22
0.56
-3.42
-7.09
-10.93
-15.33
-20.46
-26.13
-31.89
-37.17
-41.62
-45.24
-48.46
-51.98
-56.51
-62.57
-70.22
-79.02
-87.89
-95.20
-98.99
-97.39
-89.20
-74.37
-54.12
-30.73
-6.87
15.07
33.43
47.45
57.06
62.56
64.45
63.34
60.06
55.67
51.27
47.83
45.85
45.27
45.57
46.07
46.22
45.86
45.13
44.29
43.44
42.41
40.84
38.31
34.62
29.86
24.39
18.66
13.13
8.05
3.53
-0.57
-4.53
-8.80
-13.77
-19.62
-26.14
-32.75
-38.71
-43.51
-47.12
-50.11
-53.42
-58.06
-64.63
-73.10
-82.64
-91.73
-98.37
-100.54
-96.64
-85.98
-69.10
-47.69
-24.17
-1.15
19.26
35.77
47.95
55.99
60.46
62.04
61.37
59.11
55.92
52.50
49.49
47.41
46.46
46.55
47.28
48.11
48.57
48.41
47.57
46.18
44.35
42.11
39.41
36.19
32.42
28.24
23.84
19.38
15.00
10.72
6.52
2.35
-1.79
-5.94
-10.19
-14.67
-19.51
-24.80
-30.46
-36.25
-41.84
-46.89
-51.25
-54.98
-58.42
-62.10
-66.71
-72.86
-80.76
-89.92
-98.93
-105.57
-107.37
-102.39
-90.04
-71.29
-48.51
-24.64
-2.30
16.79
31.93
43.16
50.86
55.42
57.23
56.78
54.76
52.02
49.35
47.31
46.08
45.52
45.32
45.20
45.05
44.83
44.57
44.19
43.53
42.37
40.51
37.89
34.58
30.69
26.34
21.63
16.69
11.71
6.93
2.59
-1.20
-4.47
-7.49
-10.61
-14.21
-18.52
-23.55
-29.11
-34.79
-40.17
-44.89
-48.84
-52.28
-55.70
-59.80
-65.20
-72.18
-80.37
-88.67
-95.32
-98.26
-95.67
-86.56
-71.12
-50.78
-27.87
-4.95
15.75
32.76
45.46
53.91
58.59
60.10
59.13
56.44
52.85
49.24
46.37
44.70
44.28
44.74
45.51
46.03
46.02
45.48
44.65
43.74
42.79
41.60
39.83
37.20
33.65
29.30
24.45
19.38
14.30
9.38
4.76
0.62
-2.92
-5.91
-8.64
-11.58
-15.18
-19.67
-24.90
-30.42
-35.66
-40.26
-44.18
-47.67
-51.20
-55.28
-60.36
-66.71
-74.10
-81.71
-88.02
-91.05
-88.93
-80.57
-66.13
-47.08
-25.76
-4.70
14.06
29.31
40.57
47.89
51.57
51.97
49.65
45.35
40.06
34.90
30.84
28.49
27.94
28.79
30.34
31.88
32.97
33.46
33.52
33.41
33.20
32.75
31.69
29.63
26.38
22.04
17.03
11.89
7.08
2.79
-1.11
-4.96
-9.14
-13.82
-18.90
-24.01
-28.70
-32.68
-36.01
-39.13
-42.74
-47.54
-54.02
-62.20
-71.49
-80.68
-88.11
-91.96
-90.69
-83.47
-70.44
-52.78
-32.42
-11.63
7.56
23.71
36.13
44.79
50.07
52.50
52.64
51.03
48.26
45.03
42.05
39.90
38.82
38.63
38.84
39.00
38.84
38.41
37.92
37.44
36.77
35.43
32.88
28.90
23.74
18.05
12.59
7.87
3.93
0.36
-3.43
-7.94
-13.28
-19.24
-25.36
-31.17
-36.35
-40.75
-44.40
-47.48
-50.41
-53.82
-58.51
-64.98
-73.14
-81.86
-89.12
-92.46
-89.83
-80.27
-64.33
-43.86
-21.41
0.54
20.00
35.82
47.48
54.99
58.64
58.92
56.51
52.24
47.06
41.97
37.92
35.56
35.14
36.47
38.98
41.95
44.76
47.05
48.70
49.67
49.86
49.01
46.81
43.08
37.95
31.84
25.36
19.02
13.07
7.39
1.64
-4.53
-11.15
-17.90
-24.20
-29.47
-33.43
-36.34
-38.81
-41.71
-45.81
-51.57
-59.02
-67.62
-76.26
-83.28
-86.74
-84.97
-77.09
-63.42
-45.48
-25.55
-5.94
11.51
25.82
36.67
44.14
48.44
49.77
48.51
45.27
40.96
36.56
32.89
30.37
28.99
28.45
28.37
28.47
28.64
28.83
28.94
28.65
27.55
25.27
21.71
17.11
11.89
6.54
1.34
-3.69
-8.67
-13.70
-18.78
-23.80
-28.60
-33.15
-37.52
-41.82
-46.17
-50.70
-55.65
-61.38
-68.16
-75.84
-83.49
-89.36
-91.25
-87.29
-76.70
-60.17
-39.66
-17.72
3.32
21.84
37.07
48.78
57.00
61.79
63.32
62.04
58.80
54.66
50.67
47.55
45.56
44.62
44.53
45.08
46.10
47.32
48.29
48.47
47.39
44.85
41.02
36.28
31.09
25.75
20.36
14.88
9.24
3.36
-2.78
-9.16
-15.69
-22.18
-28.38
-34.06
-39.17
-43.93
-48.87
-54.69
-61.97
-70.81
-80.59
-89.77
-96.20
-97.62
-92.37
-80.02
-61.61
-39.33
-15.91
6.13
25.05
39.99
50.78
57.65
61.00
61.38
59.48
56.17
52.34
48.79
46.04
44.30
43.49
43.34
43.50
43.65
43.56
43.08
42.15
40.70
38.64
35.83
32.20
27.78
22.81
17.62
12.52
7.61
2.81
-2.12
-7.31
-12.76
-18.25
-23.49
-28.27
-32.62
-36.77
-41.19
-46.39
-52.89
-60.88
-70.01
-79.16
-86.51
-89.90
-87.47
-78.31
-62.87
-42.88
-20.81
0.81
19.97
35.49
46.95
54.39
58.11
58.50
56.15
51.91
46.88
42.23
38.89
37.36
37.53
38.80
40.44
41.80
42.55
42.65
42.20
41.25
39.71
37.40
34.15
29.93
24.94
19.46
13.82
8.19
2.59
-3.08
-8.93
-14.94
-20.97
-26.74
-32.03
-36.74
-40.97
-45.04
-49.39
-54.54
-61.00
-68.95
-78.05
-87.13
-94.22
-97.02
-93.61
-83.19
-66.45
-45.43
-22.76
-0.91
18.37
34.13
46.00
53.92
57.97
58.45
56.08
51.96
47.31
43.22
40.26
38.51
37.63
37.26
37.14
37.25
37.60
38.01
38.09
37.29
35.12
31.49
26.70
21.34
15.96
10.85
5.92
0.87
-4.55
-10.36
-16.33
-22.10
-27.39
-32.11
-36.37
-40.39
-44.48
-49.03
-54.54
-61.51
-70.15
-80.02
-89.75
-97.20
-100.00
-96.36
-85.73
-69.09
-48.62
-26.95
-6.46
11.24
25.29
35.45
41.74
44.34
43.63
40.26
35.20
29.62
24.53
20.64
18.10
16.65
15.76
14.89
13.67
11.98
9.92
7.63
5.28
2.89
0.40
-2.27
-5.08
-7.69
-9.55
-10.02
-8.65
-5.42
-0.86
4.14
8.59
11.82
13.63
14.26
14.11
13.47
12.24
10.04
6.28
0.42
-7.94
-18.80
-31.64
-45.21
-57.53
-66.17
-68.81
-63.99
-51.67
-33.26
-11.27
11.46
32.54
50.43
64.41
74.31
80.23
82.39
81.22
77.49
72.30
66.87
62.17
58.70
56.37
54.70
53.15
51.40
49.41
47.35
45.38
43.44
41.24
38.41
34.72
30.21
25.14
19.89
14.82
10.14
5.90
2.00
-1.77
-5.77
-10.30
-15.56
-21.48
-27.66
-33.49
-38.42
-42.21
-45.13
-47.94
-51.71
-57.35
-65.29
-75.12
-85.49
-94.27
-98.96
-97.48
-88.69
-72.86
-51.60
-27.39
-2.89
19.71
39.03
54.44
65.83
73.24
76.82
76.85
73.90
68.98
63.35
58.25
54.55
52.51
51.82
51.87
52.01
51.89
51.43
50.73
49.86
48.71
47.05
44.58
41.13
36.71
31.59
26.16
20.83
15.91
11.54
7.65
3.97
0.21
-3.95
-8.69
-14.00
-19.63
-25.19
-30.26
-34.57
-38.15
-41.34
-44.74
-49.01
-54.69
-62.06
-70.83
-80.04
-88.03
-92.67
-91.88
-84.34
-69.98
-50.14
-27.28
-4.18
16.80
34.13
47.25
56.20
61.28
62.87
61.46
57.83
53.04
48.35
44.81
42.97
42.69
43.34
44.09
44.31
43.79
42.69
41.31
39.81
38.09
35.81
32.61
28.34
23.14
17.47
11.87
6.81
2.51
-1.12
-4.41
-7.77
-11.58
-15.99
-20.91
-26.03
-30.97
-35.37
-39.11
-42.33
-45.46
-49.12
-53.91
-60.18
-67.76
-75.79
-82.74
-86.69
-85.87
-79.16
-66.49
-48.96
-28.51
-7.37
12.41
29.35
42.60
51.83
57.07
58.66
57.18
53.50
48.62
43.57
39.23
36.16
34.58
34.36
35.08
36.22
37.24
37.72
37.41
36.26
34.35
31.75
28.54
24.78
20.56
16.05
11.41
6.74
1.98
-3.01
-8.38
-14.09
-19.90
-25.45
-30.45
-34.80
-38.74
-42.77
-47.52
-53.46
-60.69
-68.67
-76.18
-81.53
-83.00
-79.32
-70.10
-55.97
-38.36
-19.15
-0.21
16.90
31.14
41.93
49.13
52.94
53.77
52.24
49.00
44.81
40.38
36.37
33.26
31.27
30.33
30.17
30.44
30.83
31.17
31.32
31.08
30.21
28.46
25.71
22.04
17.76
13.27
8.90
4.78
0.81
-3.24
-7.56
-12.23
-17.09
-21.87
-26.28
-30.22
-33.78
-37.33
-41.32
-46.25
-52.42
-59.81
-67.91
-75.61
-81.36
-83.40
-80.30
-71.43
-57.28
-39.39
-19.95
-1.20
15.18
28.25
37.79
43.99
47.19
47.80
46.29
43.33
39.76
36.48
34.12
32.95
32.79
33.18
33.65
33.88
33.81
33.50
33.01
32.28
31.16
29.44
26.97
23.76
19.95
15.81
11.61
7.57
3.80
0.22
-3.38
-7.24
-11.55
-16.36
-21.53
-26.76
-31.75
-36.21
-40.10
-43.59
-47.11
-51.24
-56.52
-63.09
-70.49
-77.59
-82.77
-84.32
-81.02
-72.43
-59.08
-42.32
-23.98
-5.93
10.21
23.38
33.01
39.07
41.92
42.12
40.38
37.46
34.09
30.91
28.46
26.98
26.43
26.49
26.70
26.68
26.27
25.57
24.80
24.07
23.28
22.06
20.02
16.91
12.82
8.22
3.65
-0.46
-4.07
-7.43
-10.98
-14.96
-19.36
-23.88
-28.14
-31.89
-35.15
-38.16
-41.27
-44.84
-49.19
-54.57
-60.98
-67.96
-74.44
-78.77
-79.16
-74.33
-63.97
-48.96
-31.13
-12.59
4.84
19.96
32.21
41.41
47.52
50.53
50.59
48.10
43.88
39.03
34.66
31.61
30.22
30.27
31.23
32.48
33.56
34.29
34.61
34.54
34.02
32.98
31.28
28.86
25.71
21.87
17.55
12.98
8.51
4.39
0.69
-2.79
-6.42
-10.53
-15.21
-20.22
-25.10
-29.46
-33.12
-36.29
-39.46
-43.21
-48.10
-54.47
-62.26
-70.81
-78.82
-84.48
-85.87
-81.60
-71.24
-55.66
-36.71
-16.75
2.03
18.05
30.65
39.82
45.97
49.55
50.98
50.55
48.71
46.04
43.30
41.19
40.04
39.74
39.76
39.56
38.86
37.84
36.93
36.53
36.65
36.87
36.52
35.03
32.19
28.19
23.48
