1663883476.00
64.000000
-0.00
-0.00
-0.00
-0.00
-0.00
-0.00
-0.00
-0.00
-0.00
-0.00
0.00
0.01
0.01
-0.00
-0.03
-0.05
-0.05
0.00
0.13
0.36
0.66
1.01
1.37
1.72
2.06
2.40
2.79
3.24
3.80
4.42
5.06
5.66
6.20
6.68
7.15
7.68
8.31
9.14
10.09
11.04
11.88
12.56
13.14
13.76
14.65
15.96
17.91
20.32
22.90
25.38
27.58
29.57
31.68
34.32
37.81
42.54
48.15
54.10
59.83
64.97
69.58
74.14
79.34
85.71
93.76
103.00
112.62
121.73
129.77
136.75
143.30
150.75
157.77
166.64
177.95
191.79
206.97
220.57
228.25
225.36
208.53
176.87
132.76
80.05
23.07
-34.94
-92.44
-149.16
-205.23
-260.37
-313.74
-363.87
-409.83
-450.91
-486.50
-515.74
-537.23
-549.22
-549.96
-538.37
-514.21
-478.67
-433.88
-382.45
-327.02
-269.84
-212.63
-156.66
-102.95
-52.37
-5.90
35.58
71.43
101.35
125.50
144.38
158.69
169.15
176.37
180.75
182.57
182.07
179.51
175.23
169.65
163.18
156.15
148.81
141.30
133.69
126.02
118.33
110.69
103.16
95.80
88.68
81.83
75.25
68.95
62.95
57.25
51.86
46.78
42.03
37.59
33.45
29.61
26.07
22.81
19.83
17.11
14.67
12.48
10.54
8.83
7.35
6.07
4.97
4.05
3.27
2.62
2.09
1.65
1.30
1.01
0.79
0.61
0.47
0.37
0.29
0.23
0.18
0.15
0.14
0.13
0.13
0.15
0.16
0.19
0.22
0.25
0.29
0.33
0.38
0.42
0.47
0.52
0.57
0.62
0.67
0.73
0.79
0.86
0.94
1.02
1.11
1.21
1.32
1.44
1.58
1.74
1.93
2.14
2.37
2.61
2.83
3.05
3.26
3.49
3.77
4.12
4.53
5.01
5.52
6.05
6.58
7.13
7.72
8.37
9.11
9.95
10.84
11.74
12.61
13.45
14.26
15.13
16.10
17.24
18.49
19.74
20.78
21.41
21.46
20.84
19.61
17.86
15.66
13.00
9.77
5.75
0.87
-4.82
-11.00
-17.16
-22.74
-27.31
-30.72
-33.19
-35.16
-37.06
-39.17
-41.43
-43.48
-44.92
-45.48
-45.17
-44.32
-43.44
-43.01
-43.45
-45.13
-48.20
-52.33
-56.40
-58.63
-56.91
-49.67
-36.71
-19.48
-0.66
16.78
30.66
40.10
45.49
47.77
47.81
46.07
42.72
38.03
32.69
27.63
23.73
21.34
20.18
19.51
18.50
16.66
14.11
11.45
9.44
8.60
8.89
9.79
10.49
10.24
8.75
6.21
3.17
0.30
-1.94
-3.50
-4.69
-6.08
-8.07
-10.92
-14.62
-18.78
-22.74
-25.62
-26.45
-24.50
-19.44
-11.65
-2.14
7.73
16.70
23.89
28.93
31.86
32.82
31.95
29.42
25.50
20.69
15.67
11.09
7.32
4.42
2.15
0.21
-1.65
-3.48
-5.18
-6.53
-7.26
-7.19
-6.19
-4.28
-1.66
1.27
3.91
5.61
5.77
3.99
0.18
-5.50
-12.64
-20.65
-28.78
-36.16
-41.83
-45.01
-45.24
-42.63
-37.94
-32.32
-27.02
-22.92
-20.40
-19.23
-18.85
-18.63
-18.15
-17.35
-16.46
-15.97
-16.40
-18.03
-20.85
-24.46
-28.18
-31.27
-33.15
-33.46
-32.09
-29.17
-24.98
-20.02
-14.92
-10.51
-7.49
-6.27
-6.72
-8.16
-9.59
-10.07
-9.00
-6.24
-1.85
4.32
12.85
24.84
41.49
63.63
91.35
123.79
159.38
196.05
231.37
262.73
287.28
302.28
305.45
295.63
273.31
240.72
201.37
159.18
117.52
78.47
42.79
10.33
-19.31
-46.20
-69.98
-90.09
-106.18
-118.41
-127.46
-134.19
-139.41
-143.73
-147.66
-151.80
-156.93
-163.69
-172.34
-182.42
-192.65
-201.12
-205.70
-204.40
-195.73
-178.94
-154.12
-122.37
-85.63
-46.41
-7.43
28.85
60.63
86.84
107.13
121.68
131.06
136.07
137.61
136.51
133.32
128.31
121.38
112.23
100.47
85.81
68.27
48.47
27.83
8.56
-6.74
-15.87
-17.90
-13.71
-5.84
2.32
7.70
8.55
4.79
-2.35
-11.22
-20.42
-29.17
-37.29
-44.75
-51.44
-57.12
-61.63
-65.02
-67.57
-69.63
-71.29
-72.34
-72.37
-71.05
-68.54
-65.41
-62.50
-60.46
-59.57
-59.65
-60.35
-61.31
-62.45
-63.90
-65.92
-68.80
-72.67
-77.47
-82.80
-87.91
-91.82
-93.56
-92.60
-89.08
-83.86
-78.26
-73.49
-70.19
-68.30
-67.10
-65.46
-62.24
-56.37
-47.05
-33.72
-16.26
4.87
28.57
53.13
76.56
96.94
112.85
123.60
129.28
130.67
129.13
126.31
124.04
124.06
127.72
135.66
147.48
161.73
176.14
188.17
195.62
196.99
191.63
179.51
160.91
136.40
106.81
73.39
37.94
2.48
-31.07
-61.32
-87.61
-109.98
-128.85
-144.59
-157.24
-166.30
-170.74
-169.36
-161.25
-146.36
-125.75
-101.42
-75.80
-50.98
-28.22
-7.90
10.11
25.95
39.53
50.64
59.26
65.80
71.16
76.35
82.13
88.72
95.69
102.14
106.82
108.44
105.84
98.30
85.76
68.84
48.74
26.75
3.91
-19.35
-43.07
-67.45
-92.41
-117.28
-140.78
-161.23
-176.85
-186.03
-187.59
-180.82
-165.69
-142.85
-113.68
-80.09
-44.22
-8.26
25.84
56.29
81.53
100.16
111.18
114.19
109.65
98.90
83.96
67.09
50.37
35.39
23.17
14.19
8.56
6.08
6.26
8.34
11.39
14.38
16.39
16.80
15.42
12.50
8.63
4.57
1.01
-1.66
-3.27
-3.90
-3.67
-2.68
-0.96
1.36
4.01
6.60
8.67
9.83
9.79
8.32
5.29
0.62
-5.56
-12.90
-20.70
-28.15
-34.41
-38.83
-40.98
-40.67
-37.96
-33.23
-27.21
-20.83
-15.00
-10.34
-6.91
-4.36
-2.14
0.18
2.71
5.27
7.53
9.01
9.25
7.90
4.94
1.02
-2.40
-3.26
0.58
10.57
26.79
47.60
69.83
89.36
101.99
104.45
95.17
74.68
45.61
12.07
-21.27
-50.19
-71.69
-84.36
-88.25
-84.68
-75.68
-63.70
-51.26
-40.53
-33.02
-29.30
-28.96
-30.89
-33.72
-36.29
-38.04
-39.05
-39.84
-40.97
-42.69
-44.84
-46.84
-47.98
-47.58
-45.17
-40.57
-33.83
-25.27
-15.43
-4.96
5.53
15.60
24.99
33.59
41.26
47.81
52.94
56.47
58.53
59.61
60.50
62.03
64.81
68.92
73.85
78.60
81.93
82.66
79.99
73.64
63.85
51.30
36.88
21.68
6.94
-6.09
-16.32
-23.04
-26.22
-26.47
-24.78
-22.08
-18.95
-15.45
-11.38
-6.56
-1.09
4.71
10.44
15.91
21.23
26.71
32.73
39.47
46.73
53.99
60.41
64.98
66.76
65.15
59.97
51.62
40.88
28.73
16.14
4.03
-6.79
-15.50
-21.44
-24.19
-23.80
-20.84
-16.28
-11.24
-6.64
-3.12
-0.97
-0.40
-1.64
-4.97
-10.45
-17.64
-25.38
-31.97
-35.66
-35.27
-30.67
-22.87
-13.54
-4.41
3.42
9.66
14.57
18.53
21.60
23.47
23.66
21.93
18.46
13.88
8.91
4.03
-0.65
-5.31
-10.22
-15.39
-20.52
-25.13
-28.85
-31.60
-33.68
-35.57
-37.71
-40.28
-43.26
-46.55
-50.22
-54.47
-59.41
-64.81
-69.93
-73.70
-75.09
-73.53
-69.10
-62.45
-54.58
-46.48
-39.15
-33.40
-29.96
-29.40
-32.06
-37.88
-46.37
-56.52
-66.89
-75.87
-81.96
-84.30
-82.85
-78.37
-71.91
-64.19
-54.93
-42.74
-25.34
-0.05
35.40
82.35
140.55
207.73
279.45
349.43
410.64
456.82
483.99
491.34
481.09
457.51
425.28
388.33
349.16
308.89
267.76
225.71
182.76
139.05
94.94
50.81
7.11
-35.69
-76.92
-115.75
-151.07
-181.68
-206.63
-225.53
-238.72
-247.18
-252.13
-254.53
-254.79
-252.81
-248.26
-241.00
-231.22
-219.53
-206.70
-193.47
-180.45
-168.24
-157.38
-148.33
-141.21
-135.65
-130.63
-124.86
-117.11
-106.71
-93.72
-78.90
-63.47
-48.67
-35.58
-24.93
-17.10
-12.09
-9.53
-8.70
-8.67
-8.55
-7.82
-6.35
-4.44
-2.50
-0.92
0.16
0.71
0.81
0.60
0.24
-0.01
-0.00
0.23
0.24
-0.71
-3.52
-8.87
-17.08
-27.99
-41.10
-55.54
-69.90
-82.24
-90.15
-91.35
-84.38
-69.26
-47.64
-22.29
3.81
28.23
49.52
66.99
80.30
89.16
93.39
93.21
89.56
84.01
78.35
74.03
71.81
71.73
73.48
76.77
81.52
87.71
95.05
102.76
109.64
114.44
116.20
114.48
109.35
101.22
90.50
77.58
62.83
46.68
29.79
13.01
-2.57
-15.79
-25.63
-31.46
-33.20
-31.47
-27.47
-22.69
-18.56
-16.14
-15.92
-17.94
-21.86
-27.22
-33.58
-40.59
-48.01
-55.71
-63.51
-71.05
-77.78
-83.01
-86.10
-86.80
-85.40
-82.68
-79.65
-77.26
-76.17
-76.74
-79.03
-82.90
-87.93
-93.36
-98.13
-101.01
-101.05
-97.65
-90.73
-80.43
-67.00
-50.76
-32.37
-13.07
5.30
20.69
31.47
37.07
38.12
36.17
33.03
30.24
28.73
28.93
31.03
35.13
41.26
49.28
58.66
68.53
77.90
85.85
91.77
95.52
97.34
97.74
97.35
96.70
96.06
95.37
94.14
91.59
86.83
79.15
68.25
54.40
38.39
21.43
5.00
-9.37
-20.33
-26.97
-29.08
-27.27
-22.83
-17.40
-12.47
-8.99
-7.22
-6.88
-7.49
-8.63
-10.07
-11.75
-13.56
-15.37
-16.99
-18.34
-19.35
-19.92
-19.81
-18.57
-15.74
-11.15
-5.12
1.55
7.78
12.60
15.45
16.25
15.27
12.94
9.64
5.64
1.07
-4.05
-9.67
-15.59
-21.39
-26.27
-29.23
-29.24
-25.65
-18.43
-8.31
3.43
15.23
25.65
33.70
38.87
41.17
40.97
38.83
35.35
31.11
26.53
21.96
17.67
13.84
10.54
7.74
5.33
3.19
1.21
-0.66
-2.38
-3.89
-5.09
-5.97
-6.58
-7.14
-7.89
-9.11
-11.03
-13.76
-17.34
-21.73
-26.75
-32.05
-36.97
-40.58
-41.93
-40.27
-35.35
-27.52
-17.55
-6.40
4.96
15.65
24.81
31.67
35.72
36.86
35.51
32.46
28.55
24.34
20.00
15.57
11.16
7.21
4.29
2.82
2.73
3.46
4.11
3.91
2.54
0.18
-2.65
-5.40
-7.77
-9.77
-11.64
-13.70
-16.23
-19.40
-23.23
-27.48
-31.66
-35.03
-36.66
-35.70
-31.72
-24.85
-15.83
-5.84
3.89
12.33
18.89
23.36
25.86
26.67
26.19
24.83
22.97
20.89
18.79
16.78
15.01
13.63
12.78
12.47
12.55
12.67
12.42
11.54
9.98
7.91
5.57
3.07
0.37
-2.74
-6.45
-10.79
-15.53
-20.24
-24.36
-27.24
-28.38
-27.40
-24.25
-19.15
-12.59
-5.21
2.37
9.56
15.90
21.02
24.67
26.74
27.29
26.52
24.71
22.18
19.22
16.17
13.41
11.25
9.87
9.13
8.60
7.75
6.16
3.78
0.90
-2.04
-4.74
-7.14
-9.48
-12.04
-15.02
-18.40
-22.00
-25.58
-28.86
-31.42
-32.71
-32.02
-28.76
-22.69
-14.19
-4.22
5.95
15.16
22.66
28.12
31.50
32.77
31.88
28.85
23.96
17.91
11.65
6.11
1.90
-0.84
-2.41
-3.21
-3.63
-3.84
-3.95
-4.01
-4.17
-4.54
-5.13
-5.85
-6.60
-7.34
-8.28
-9.80
-12.35
-16.24
-21.39
-27.26
-32.86
-36.91
-38.23
-36.09
-30.41
-21.90
-11.80
-1.62
7.32
14.15
18.64
21.06
21.96
21.90
21.30
20.38
19.21
17.82
16.26
14.60
12.89
11.09
9.06
6.70
3.97
1.02
-1.86
-4.36
-6.33
-7.88
-9.34
-11.17
-13.70
-17.02
-21.01
-25.42
-30.10
-35.02
-40.12
-45.17
-49.54
-52.30
-52.52
-49.61
-43.72
-35.67
-26.69
-18.06
-10.80
-5.49
-2.39
-1.55
-2.87
-6.15
-11.05
-17.10
-23.72
-30.38
-36.60
-42.05
-46.55
-50.02
-52.40
-53.52
-52.99
-50.17
-44.47
-35.71
-24.40
-11.81
0.43
10.86
18.70
23.88
26.78
27.79
27.12
24.87
21.40
17.60
14.83
14.51
17.54
24.01
33.16
43.72
54.38
64.01
71.80
77.21
79.81
79.34
75.74
69.25
60.45
50.16
39.37
29.09
20.17
13.19
8.37
5.51
4.16
3.68
3.54
3.35
3.02
2.61
2.29
2.19
2.37
2.74
3.05
2.97
2.13
0.33
-2.28
-5.14
-7.26
-7.58
-5.28
-0.11
7.51
16.62
26.03
34.62
41.61
46.63
49.59
50.62
49.93
47.79
44.49
40.37
35.75
30.88
25.94
21.01
16.10
11.19
6.21
1.11
-4.13
-9.47
-14.92
-20.39
-25.84
-31.16
-36.10
-40.27
-43.17
-44.39
-43.74
-41.53
-38.46
-35.46
-33.26
-32.06
-31.48
-30.70
-28.86
-25.36
-20.13
-13.49
-6.00
1.77
9.38
16.49
22.80
28.04
31.93
34.27
34.98
34.09
31.72
28.00
23.04
17.05
10.33
3.37
-3.21
-8.76
-12.78
-15.06
-15.80
-15.54
-14.99
-14.83
-15.53
-17.21
-19.68
-22.61
-25.64
-28.61
-31.46
-34.25
-36.87
-39.02
-40.14
-39.52
-36.58
-31.09
-23.34
-14.07
-4.30
5.03
13.19
19.77
24.60
27.64
28.92
28.60
26.98
24.58
22.01
19.84
18.34
17.48
16.92
16.27
15.26
13.83
12.04
9.94
7.48
4.53
0.96
-3.21
-7.83
-12.67
-17.52
-22.27
-26.85
-31.04
-34.32
-35.98
-35.31
-31.90
-25.89
-17.98
-9.15
-0.40
7.56
14.29
19.55
23.25
25.35
25.86
24.93
22.81
19.82
16.28
12.47
8.59
4.88
1.60
-0.99
-2.69
-3.47
-3.56
-3.30
-3.06
-3.11
-3.58
-4.50
-5.83
-7.54
-9.61
-11.90
-14.25
-16.42
-18.17
-19.24
-19.42
-18.49
-16.27
-12.65
-7.77
-1.95
4.26
10.35
15.95
20.92
25.27
29.00
32.01
34.16
35.28
35.32
34.33
32.39
29.54
25.72
20.79
14.64
7.32
-0.94
-9.70
-18.39
-26.43
-33.37
-38.91
-42.98
-45.71
-47.26
-47.82
-47.53
-46.54
-45.05
-43.28
-41.41
-39.49
-37.32
-34.58
-31.06
-26.83
-22.36
-18.36
-15.52
-14.31
-14.87
-17.14
-20.88
-25.71
-30.97
-35.51
-37.74
-35.97
-28.91
-16.10
1.87
23.63
47.37
71.32
93.92
113.83
129.91
141.27
147.36
148.13
144.10
136.21
125.57
113.29
100.26
87.16
74.43
62.29
50.73
39.62
28.83
18.38
8.44
-0.63
-8.55
-15.12
-20.37
-24.50
-27.80
-30.58
-33.17
-35.80
-38.57
-41.40
-43.98
-45.86
-46.52
-45.46
-42.37
-37.19
-30.25
-22.32
-14.61
-8.56
-5.62
-6.78
-12.32
-21.65
-33.45
-45.95
-57.41
-66.53
-72.82
-76.62
-79.00
-81.40
-85.25
-91.58
-100.74
-112.27
-124.91
-136.71
-145.32
-148.34
-143.87
-130.91
-109.70
-81.67
-49.25
-15.37
17.00
45.31
67.72
83.12
91.15
92.06
86.67
76.29
62.70
48.07
34.60
24.23
18.19
16.74
19.24
24.36
30.59
36.57
41.36
44.46
45.69
45.04
42.56
38.48
33.11
27.00
20.72
14.76
9.38
4.52
-0.07
-4.61
-9.02
-12.77
-15.05
-15.09
-12.56
-7.73
-1.46
5.20
11.35
16.48
20.43
23.25
24.97
25.56
25.04
23.63
21.74
19.91
18.61
18.11
18.50
19.74
21.76
24.48
27.69
31.11
34.33
36.86
38.30
38.41
37.12
34.58
30.99
26.63
21.79
16.81
12.01
7.68
3.92
0.65
-2.31
-5.11
-7.67
-9.58
-10.28
-9.27
-6.40
-2.01
3.19
8.35
12.79
16.13
18.27
19.21
19.03
17.80
15.64
12.79
9.61
6.53
3.92
2.04
1.03
0.89
1.50
2.64
3.97
5.14
5.75
5.49
4.20
1.92
-1.19
-4.81
-8.71
-12.73
-16.81
-21.00
-25.32
-29.70
-33.95
-37.75
-40.70
-42.38
-42.49
-40.91
-37.72
-33.22
-27.81
-21.96
-16.14
-10.77
-6.20
-2.66
-0.25
1.01
1.23
0.54
-0.93
-3.03
-5.54
-8.16
-10.52
-12.25
-13.09
-12.96
-12.05
-10.68
-9.28
-8.30
-8.11
-8.93
-10.78
-13.50
-16.72
-20.02
-23.01
-25.45
-27.23
-28.30
-28.52
-27.64
-25.38
-21.55
-16.23
-9.73
-2.60
4.54
11.08
16.54
20.60
23.22
24.60
25.17
25.36
25.47
25.53
25.39
24.84
23.82
22.42
20.74
18.80
16.50
13.72
10.43
6.79
3.04
-0.68
-4.35
-8.03
-11.75
-15.37
-18.69
-21.48
-23.64
-25.14
-25.90
-25.74
-24.41
-21.74
-17.74
-12.69
-7.03
-1.22
4.29
9.11
12.85
15.17
15.88
14.97
12.67
9.31
5.24
0.70
-4.07
-8.82
-13.23
-16.92
-19.56
-21.05
-21.47
-21.00
-19.83
-18.08
-15.74
-12.88
-9.65
-6.32
-3.17
-0.40
1.89
3.65
4.78
5.09
4.40
2.72
0.45
-1.60
-2.43
-1.20
2.40
8.04
14.86
21.87
28.22
33.39
37.23
39.80
41.20
41.54
40.94
39.51
37.42
34.84
31.89
28.64
25.17
21.56
17.95
14.46
11.16
8.09
5.17
2.36
-0.44
-3.24
-6.01
-8.74
-11.41
-14.06
-16.79
-19.70
-22.90
-26.39
-30.10
-33.85
-37.29
-39.97
-41.35
-40.88
-38.25
-33.56
-27.30
-20.32
-13.56
-7.68
-2.99
0.67
3.68
6.39
8.95
11.31
13.30
14.75
15.63
15.99
15.98
15.74
15.38
14.97
14.56
14.10
13.48
12.56
11.16
9.23
6.82
4.10
1.32
-1.30
-3.63
-5.69
-7.58
-9.54
-11.75
-14.25
-16.85
-19.09
-20.34
-20.04
-17.87
-13.84
-8.35
-2.06
4.28
9.98
14.56
17.84
19.95
21.17
21.73
21.62
20.65
18.52
15.18
10.93
6.48
2.63
-0.03
-1.40
-1.76
-1.62
-1.39
-1.30
-1.43
-1.88
-2.87
-4.64
-7.33
-10.83
-14.79
-18.76
-22.42
-25.70
-28.74
-31.67
-34.37
-36.39
-37.10
-35.89
-32.45
-26.89
-19.68
-11.43
-2.76
5.73
13.50
20.03
24.96
28.25
30.34
32.09
34.47
38.24
43.60
50.07
56.62
61.91
64.71
64.12
59.78
51.94
41.39
29.26
16.78
5.02
-5.30
-13.95
-21.09
-27.08
-32.42
-37.59
-43.00
-48.98
-55.59
-62.47
-68.71
-73.06
-74.22
-71.38
-64.57
-54.69
-43.16
-31.31
-20.00
-9.38
0.86
11.22
21.95
32.98
43.89
54.02
62.53
68.42
70.69
68.60
61.96
51.52
38.95
26.54
16.45
9.99
7.19
6.78
6.73
4.93
-0.21
-9.49
-22.87
-39.66
-58.66
-78.35
-97.16
-113.72
-127.20
-137.27
-143.94
-147.12
-146.50
-141.59
-132.27
-119.20
-103.99
-88.85
-75.91
-66.50
-60.81
-58.04
-56.67
-55.07
-51.72
-45.48
-35.57
-21.75
-4.27
16.06
37.98
59.94
80.35
97.83
111.29
120.08
123.94
123.03
117.82
109.11
97.86
85.17
72.08
59.54
48.25
38.62
30.75
24.47
19.46
15.44
12.40
10.67
10.86
13.59
19.15
27.26
37.05
47.33
57.02
65.32
71.82
76.26
78.32
77.56
73.55
66.27
56.33
44.98
33.85
24.41
17.54
13.36
11.36
10.70
10.53
10.28
9.61
8.43
6.70
4.41
1.56
-1.79
-5.53
-9.49
-13.55
-17.70
-22.09
-26.89
-32.05
-37.06
-40.91
-42.32
-40.20
-34.13
-24.62
-13.00
-1.02
9.70
18.07
23.61
26.39
26.80
25.37
22.72
19.45
16.13
13.25
11.14
9.97
9.77
10.41
11.62
12.93
13.78
13.62
12.11
9.17
4.99
0.03
-5.26
-10.48
-15.33
-19.65
-23.40
-26.65
-29.63
-32.68
-36.11
-40.07
-44.32
-48.19
-50.69
-50.81
-47.84
-41.65
-32.79
-22.26
-11.37
-1.35
6.84
12.57
15.71
16.58
15.93
14.75
14.08
14.63
16.58
19.61
22.99
25.91
27.74
28.09
26.95
24.57
21.44
18.12
15.12
12.74
10.97
9.49
7.85
5.63
2.65
-1.07
-5.37
-10.18
-15.56
-21.65
-28.37
-35.28
-41.46
-45.75
-47.12
-44.99
-39.47
-31.32
-21.69
-11.90
-3.08
3.98
8.90
11.70
12.73
12.50
11.57
10.36
9.04
7.53
5.66
3.32
0.64
-1.97
-3.94
-4.77
-4.27
-2.72
-0.76
0.81
1.36
0.62
-1.26
-3.81
-6.52
-9.03
-11.19
-13.11
-15.00
-17.07
-19.41
-21.90
-24.22
-25.82
-26.06
-24.38
-20.43
-14.23
-6.19
2.91
12.09
20.33
26.83
31.16
33.33
33.64
32.53
30.32
27.19
23.24
18.63
13.77
9.21
5.52
2.99
1.55
0.79
0.15
-0.73
-2.04
-3.71
-5.69
-7.94
-10.51
-13.41
-16.58
-19.96
-23.59
-27.70
-32.53
-38.11
-43.92
-48.84
-51.47
-50.72
-46.33
-39.11
-30.67
-22.84
-17.04
-13.93
-13.46
-15.12
-18.24
-22.13
-26.10
-29.30
-30.91
-30.28
-27.19
-22.03
-15.75
-9.58
-4.62
-1.54
-0.35
-0.43
-0.82
-0.63
0.56
2.54
4.56
5.75
5.55
3.97
1.49
-1.32
-4.15
-6.95
-9.65
-11.54
-11.11
-6.23
4.83
22.48
45.20
69.93
93.02
111.49
123.76
129.68
130.02
125.81
117.98
107.43
95.34
83.38
73.51
67.49
66.35
70.03
77.31
86.11
94.02
98.88
99.24
94.64
85.61
73.37
59.31
44.52
29.53
14.36
-1.31
-17.69
-34.77
-52.22
-69.51
-85.88
-100.41
-111.90
-118.97
-120.25
-114.93
-103.08
-85.97
-65.90
-45.61
-27.67
-13.94
-5.26
-1.68
-2.80
-8.08
-16.93
-28.61
-41.98
-55.49
-67.35
-75.90
-80.14
-79.86
-75.47
-67.59
-56.59
-42.45
-25.08
-4.78
17.27
39.08
58.13
72.24
80.12
81.68
77.82
69.95
59.41
47.17
33.87
20.01
6.25
-6.49
-17.13
-24.59
-28.08
-27.18
-21.89
-12.75
-0.91
11.89
23.43
31.39
33.98
30.47
21.41
8.53
-5.76
-18.93
-28.86
-34.10
-33.98
-28.65
-18.89
-5.90
9.02
24.76
40.63
56.19
71.00
84.24
94.64
100.65
100.89
94.66
82.17
64.55
43.71
21.99
1.90
-14.14
-24.28
-27.49
-23.84
-14.45
-1.22
13.67
28.25
40.95
50.69
56.78
58.88
57.02
51.65
43.69
34.31
24.62
15.35
6.76
-1.32
-9.13
-16.64
-23.46
-28.89
-32.28
-33.40
-32.62
-30.89
-29.40
-29.20
-30.97
-34.88
-40.77
-48.17
-56.43
-64.59
-71.37
-75.39
-75.53
-71.34
-63.32
-52.80
-41.46
-30.73
-21.44
-13.73
-7.40
-2.23
1.80
4.49
5.67
5.35
3.83
1.60
-0.83
-2.97
-4.50
-5.23
-5.15
-4.49
-3.57
-2.92
-2.96
-3.99
-6.06
-9.12
-13.02
-17.72
-23.23
-29.58
-36.62
-43.87
-50.50
-55.40
-57.53
-56.21
-51.40
-43.74
-34.39
-24.71
-15.91
-8.80
-3.71
-0.54
1.06
1.52
1.15
0.11
-1.56
-3.78
-6.34
-8.81
-10.70
-11.60
-11.40
-10.45
-9.38
-8.83
-9.14
-10.15
-11.27
-11.67
-10.67
-8.07
-4.31
-0.39
2.45
3.09
1.01
-3.48
-9.21
-14.36
-17.05
-15.85
-10.35
-1.25
9.83
20.92
30.39
37.37
41.86
44.41
45.62
45.78
44.80
42.48
38.84
34.25
29.34
24.68
20.46
16.48
12.34
7.80
2.93
-1.82
-6.01
-9.39
-12.07
-14.52
-17.27
-20.78
-25.19
-30.43
-36.19
-42.05
-47.50
-51.92
-54.59
-54.70
-51.62
-45.05
-35.29
-23.19
-10.09
2.55
13.58
22.31
28.67
32.93
35.46
36.51
36.18
34.49
31.61
27.95
24.12
20.78
18.45
17.42
17.64
18.86
20.78
23.14
25.81
28.62
31.21
32.94
32.97
30.54
25.30
17.40
7.35
-4.21
-16.72
-29.53
-41.70
-51.79
-58.08
-59.22
-54.89
-46.12
-34.97
-23.71
-13.98
-6.44
-0.93
2.91
5.31
6.31
6.06
5.16
4.63
5.55
8.55
13.47
19.39
24.96
28.81
29.98
28.16
23.76
17.90
12.11
7.81
5.77
5.66
6.09
5.09
0.89
-7.54
-20.22
-36.35
-54.57
-73.21
-90.32
-103.77
-111.52
-112.14
-105.38
-92.33
-75.22
-56.76
-39.40
-24.82
-13.88
-6.76
-3.25
-2.93
-5.26
-9.54
-14.92
-20.53
-25.63
-29.71
-32.53
-33.99
-34.04
-32.56
-29.35
-24.24
-17.21
-8.45
1.65
12.62
24.02
35.37
46.05
55.10
61.28
63.08
59.19
48.86
32.40
11.34
-11.68
-33.46
-50.91
-61.91
-65.71
-62.90
-55.08
-44.29
-32.57
-21.69
-13.13
-7.93
-6.56
-8.76
-13.41
-18.76
-22.85
-24.03
-21.28
-14.35
-3.66
9.82
24.76
39.61
52.89
63.42
70.61
74.52
75.62
74.55
71.86
67.83
62.58
56.16
48.59
39.96
30.32
19.94
9.37
-0.45
-8.27
-12.89
-13.53
-10.06
-2.89
7.33
19.95
34.39
49.89
65.19
78.58
88.31
93.24
93.43
90.26
85.99
83.05
83.28
87.48
95.22
104.95
114.27
120.33
120.23
111.73
93.67
66.40
31.67
-7.75
-48.56
-87.39
-121.07
-146.82
-162.50
-166.99
-160.61
-145.12
-123.28
-98.02
-71.61
-45.05
-18.43
8.33
34.54
58.17
76.20
85.67
84.94
74.59
57.54
38.34
21.87
12.03
10.67
17.20
28.95
42.09
53.03
59.55
61.41
59.99
57.34
54.89
52.80
50.14
45.66
38.77
29.97
20.53
11.61
3.73
-3.53
-10.94
-19.11
-28.12
-37.62
-47.14
-56.23
-64.52
-71.41
-75.95
-77.07
-73.93
-66.35
-54.97
-40.99
-25.84
-10.85
2.97
14.81
24.08
30.37
33.58
33.85
31.62
27.51
22.24
16.56
11.22
6.81
3.66
1.64
0.31
-0.90
-2.42
-4.32
-6.32
-8.14
-9.78
-11.61
-14.32
-18.47
-24.34
-31.79
-40.46
-49.83
-59.26
-67.79
-74.07
-76.57
-74.04
-66.05
-53.26
-37.32
-20.30
-4.11
10.02
21.55
30.43
36.83
40.82
42.41
41.63
38.66
34.01
28.39
22.68
17.64
13.66
10.65
8.05
5.14
1.37
-3.35
-8.58
-13.64
-17.95
-21.36
-24.23
-27.26
-31.13
-36.29
-42.81
-50.38
-58.36
-65.72
-71.07
-72.81
-69.48
-60.31
-45.61
-26.91
-6.58
12.85
29.39
41.97
50.52
55.56
57.74
57.59
55.46
51.72
46.92
41.86
37.35
33.94
31.62
29.93
28.12
25.63
22.30
18.41
14.43
10.67
7.14
3.51
-0.64
-5.57
-11.33
-17.79
-24.78
-32.19
-39.83
-47.24
-53.45
-57.11
-56.90
-51.99
-42.58
-29.89
-15.85
-2.42
8.96
17.69
23.92
28.09
30.58
31.44
30.60
28.03
24.07
19.40
14.97
11.59
9.74
9.33
9.76
10.16
9.78
8.25
5.73
2.79
0.08
-2.02
-3.62
-5.25
-7.50
-10.77
-15.06
-20.15
-25.69
-31.39
-36.85
-41.39
-43.92
-43.14
-38.05
-28.42
-15.11
0.11
15.14
28.15
38.12
44.80
48.57
49.95
49.36
47.09
43.33
38.38
32.73
27.04
21.93
17.85
14.93
12.97
11.50
9.98
7.95
5.17
1.70
-2.25
-6.35
-10.37
-14.23
-18.03
-22.00
-26.35
-31.28
-36.93
-43.32
-50.24
-57.09
-62.80
-65.96
-65.20
-59.65
-49.37
-35.47
-19.78
-4.34
9.17
19.65
26.65
30.14
30.33
27.65
22.75
16.52
9.95
3.86
-1.33
-5.68
-9.66
-13.85
-18.66
-24.11
-29.76
-34.81
-38.30
-39.49
-38.07
-34.43
-29.62
-25.17
-22.68
-23.35
-27.62
-34.98
-44.15
-53.35
-60.68
-64.45
-63.35
-56.44
-43.32
-24.12
0.31
28.43
58.09
87.09
113.61
136.78
156.70
174.03
189.37
202.65
213.04
219.31
220.53
216.57
208.31
197.19
184.59
171.19
156.71
140.18
120.53
97.23
70.66
42.17
13.59
-13.34
-37.42
-58.15
-75.47
-89.44
-100.11
-107.58
-112.24
-114.89
-116.45
-117.51
-117.79
-116.18
-111.24
-101.90
-88.23
-71.42
-53.52
-36.72
-22.68
-12.30
-5.67
-2.36
-1.64
-2.79
-5.21
-8.55
-12.64
-17.30
-22.33
-27.34
-31.94
-35.76
-38.58
-40.42
-41.45
-41.97
-42.27
-42.59
-42.89
-42.80
-41.67
-38.79
-33.79
-26.88
-19.07
-11.89
-7.06
-5.86
-8.72
-15.00
-23.05
-30.50
-34.98
-34.72
-29.03
-18.45
-4.48
10.89
25.70
38.30
47.58
52.97
54.48
52.65
48.42
42.90
37.06
31.60
26.91
23.20
20.63
19.30
19.21
20.15
21.75
23.64
25.61
27.63
29.63
31.35
32.13
31.12
27.50
20.91
11.69
0.68
-11.02
-22.58
-33.63
-44.17
-54.24
-63.44
-70.77
-74.80
-74.31
-68.88
-59.26
-47.16
-34.70
-23.68
-15.12
-9.17
-5.44
-3.39
-2.55
-2.64
-3.41
-4.55
-5.72
-6.60
-7.05
-7.02
-6.65
-5.99
-5.08
-3.93
-2.55
-1.15
-0.04
0.29
-0.56
-2.79
-6.28
-10.65
-15.39
-20.14
-24.78
-29.52
-34.68
-40.57
-47.25
-54.36
-61.09
-66.17
-68.10
-65.44
-57.34
-43.91
-26.33
-6.71
12.56
29.45
42.73
52.12
58.04
61.21
62.33
61.98
60.58
58.50
56.10
53.68
51.37
49.17
46.93
44.45
41.54
38.02
33.74
28.56
22.44
15.46
7.91
0.28
-6.88
-13.01
-17.77
-21.05
-23.04
-24.11
-24.74
-25.26
-25.81
-26.15
-25.80
-24.15
-20.71
-15.37
-8.48
-0.82
6.63
12.99
17.66
20.46
21.54
21.25
19.96
17.98
15.50
12.64
9.48
6.13
2.74
-0.56
-3.64
-6.42
-8.83
-10.85
-12.51
-13.91
-15.21
-16.63
-18.31
-20.35
-22.70
-25.22
-27.60
-29.47
-30.48
-30.46
-29.59
-28.43
-27.66
-27.69
-28.32
-28.60
-27.06
-22.33
-13.76
-1.70
12.55
27.21
40.62
51.57
59.46
64.01
65.09
62.63
56.69
47.66
36.44
24.39
13.06
3.82
-2.55
-6.02
-7.19
-7.07
-6.73
-7.06
-8.65
-11.88
-16.94
-23.88
-32.49
-42.27
-52.39
-61.90
-70.02
-76.30
-80.66
-83.05
-83.19
-80.40
-73.74
-62.57
-46.97
-28.01
-7.56
12.32
30.05
44.88
56.92
66.63
74.48
80.62
85.01
87.64
88.81
89.07
89.09
89.27
89.63
89.81
89.28
87.58
84.55
80.38
75.47
70.32
65.32
60.55
55.72
50.27
43.46
34.71
23.81
11.06
-2.75
-16.40
-28.34
-36.80
-40.18
-37.47
-28.65
-14.91
1.64
18.56
33.69
45.76
54.34
59.69
62.35
62.91
61.87
59.68
56.76
53.50
50.16
46.86
43.59
40.22
36.61
32.68
28.46
24.12
19.96
16.27
13.20
10.67
8.42
6.02
3.06
-0.88
-6.19
-13.24
-22.26
-33.13
-45.15
-56.98
-66.84
-72.88
-73.75
-68.97
-59.18
-45.95
-31.43
-17.77
-6.64
1.07
5.20
6.06
4.10
-0.37
-7.10
-15.73
-25.53
-35.42
-44.08
-50.40
-53.74
-54.10
-52.05
-48.42
-44.09
-39.91
-36.59
-34.74
-34.80
-36.99
-41.24
-47.25
-54.59
-62.77
-71.40
-80.01
-87.95
-94.35
-98.08
-98.08
-93.66
-84.83
-72.41
-57.87
-42.94
-29.27
-18.08
-10.09
-5.67
-4.87
-7.51
-12.97
-20.11
-27.20
-32.27
-33.67
-30.56
-23.27
-13.14
-2.05
8.17
16.20
21.46
23.96
23.99
21.90
17.94
12.29
5.13
-3.37
-13.10
-24.00
-36.03
-48.98
-62.26
-74.68
-84.53
-89.93
-89.43
-82.57
-70.22
-54.36
-37.49
-21.93
-9.23
-0.03
5.77
8.62
9.03
7.49
4.62
1.30
-1.25
-1.86
0.24
5.04
11.67
18.78
25.04
29.59
32.28
33.46
33.66
33.20
32.08
30.09
26.93
22.32
16.05
7.87
-2.41
-14.71
-28.27
-41.55
-52.29
-58.08
-56.96
-48.05
-31.83
-10.06
14.70
39.60
62.13
80.43
93.50
101.14
103.78
102.16
97.11
89.42
79.85
69.22
58.53
48.82
40.94
35.25
31.49
28.95
26.71
24.14
21.04
17.63
14.26
11.07
7.79
3.95
-0.96
-7.16
-14.50
-22.52
-30.65
-38.18
-44.22
-47.72
-47.59
-43.13
-34.38
-22.32
-8.70
4.55
15.82
24.21
29.55
32.06
32.05
29.83
25.69
20.04
13.51
6.89
0.86
-4.07
-7.75
-10.31
-12.06
-13.38
-14.56
-15.72
-16.80
-17.63
-18.02
-17.89
-17.29
-16.47
-15.77
-15.55
-16.15
-17.81
-20.50
-23.86
-27.21
-29.51
-29.67
-26.77
-20.38
-10.67
1.55
14.98
28.08
39.25
47.10
50.57
49.12
42.77
32.15
18.39
2.95
-12.51
-26.31
-36.94
-43.29
-44.89
-41.96
-35.41
-26.66
-17.20
-8.29
-0.71
5.35
10.19
14.40
18.65
23.44
29.04
35.37
42.05
48.54
54.24
58.53
60.88
60.95
58.80
55.00
50.69
47.26
45.94
47.29
51.00
55.93
60.61
63.70
64.46
62.82
59.20
54.19
48.29
41.72
34.59
26.94
18.95
10.88
3.05
-4.34
-11.24
-17.76
-23.97
-29.82
-35.14
-39.77
-43.70
-47.16
-50.50
-53.99
-57.63
-61.07
-63.69
-64.89
-64.30
-62.04
-58.69
-55.25
-52.85
-52.41
-54.20
-57.56
-60.94
-62.27
-59.62
-51.92
-39.25
-22.78
-4.26
14.67
32.90
49.90
65.47
79.36
91.06
99.84
105.00
106.18
103.58
97.87
90.14
81.64
73.56
66.96
62.62
61.03
62.41
66.68
73.41
81.84
90.88
99.26
105.86
110.05
111.93
112.30
112.30
112.85
114.14
115.45
115.29
111.93
103.93
90.52
71.89
49.04
23.71
-1.92
-25.59
-45.41
-60.21
-69.83
-74.98
-76.92
-76.98
-76.09
-74.68
-72.76
-70.18
-66.91
-63.14
-59.27
-55.84
-53.52
-53.00
-55.01
-60.20
-68.96
-81.21
-96.25
-112.76
-129.06
-143.40
-154.38
-161.19
-163.67
-162.18
-157.33
-149.86
-140.53
-130.18
-119.78
-110.39
-103.04
-98.52
-97.28
-99.39
-104.49
-111.70
-119.54
-125.95
-128.61
-125.63
-116.20
-101.02
-82.15
-62.34
-44.11
-29.14
-18.10
-10.96
-7.47
-7.41
-10.46
-15.98
-22.85
-29.51
-34.31
-35.90
-33.42
-26.61
-15.67
-1.16
15.94
34.27
52.13
67.69
79.41
86.39
88.60
86.81
82.24
76.13
69.31
61.98
53.76
43.96
31.93
17.61
1.82
-13.59
-26.01
-32.70
-31.66
-22.28
-5.66
15.81
39.20
61.84
81.86
98.26
110.62
118.69
122.30
121.39
116.16
107.19
95.37
81.64
66.91
51.95
37.50
24.29
13.00
4.04
-2.54
-7.11
-10.34
-12.94
-15.48
-18.37
-21.89
-26.34
-31.99
-38.97
-47.16
-56.17
-65.46
-74.47
-82.53
-88.72
-91.61
-89.35
-80.16
-63.01
-38.42
-8.55
23.22
53.20
78.40
97.10
108.79
113.78
112.70
106.25
95.27
80.95
64.87
48.87
34.71
23.67
16.38
12.86
12.69
15.22
19.67
25.12
30.52
34.64
36.28
34.51
28.89
19.63
7.55
-6.14
-20.17
-33.47
-45.41
-55.75
-64.57
-71.88
-77.28
-79.79
-78.03
-70.72
-57.28
-38.34
-15.83
7.58
29.05
46.37
58.25
64.37
65.08
61.15
53.60
43.65
32.68
22.06
12.89
5.84
1.03
-1.62
-2.27
-0.91
2.57
8.10
15.24
23.05
30.22
35.39
37.41
35.55
29.63
19.99
7.48
-6.75
-21.42
-35.42
-47.92
-58.31
-65.88
-69.62
-68.22
-60.49
-46.06
-25.84
-2.07
22.34
44.75
63.51
78.32
89.83
99.03
106.67
113.04
117.99
121.31
122.91
122.87
121.50
119.17
116.32
113.31
110.32
107.22
103.61
98.81
92.13
83.05
71.40
57.37
41.40
24.02
5.78
-12.82
-31.40
-49.80
-68.11
-86.56
-105.26
-123.73
-140.66
-154.03
-161.63
-161.89
-154.58
-140.95
-123.28
-104.08
-85.15
-67.21
-50.03
-33.04
-15.90
1.04
16.87
30.51
41.11
48.40
52.71
54.70
55.11
54.40
52.55
49.26
44.15
37.05
28.23
18.39
8.46
-0.57
-7.94
-13.19
-16.18
-17.03
-16.11
-14.10
-11.92
-10.72
-11.42
-14.39
-19.13
-24.30
-28.11
-29.01
-26.14
-19.69
-10.69
-0.49
9.73
19.22
27.70
35.00
40.88
44.97
46.86
46.39
43.78
39.59
34.51
29.15
23.89
18.90
14.25
9.92
5.76
1.46
-3.41
-9.26
-16.16
-23.80
-31.53
-38.55
-44.33
-48.68
-51.89
-54.55
-57.37
-60.98
-65.74
-71.46
-77.26
-81.56
-82.31
-77.71
-66.82
-50.13
-29.48
-7.59
12.82
29.81
42.48
50.85
55.41
56.65
54.90
50.44
43.77
35.64
26.99
18.65
11.12
4.51
-1.36
-6.64
-11.33
-15.29
-18.36
-20.46
-21.63
-21.88
-21.05
-18.80
-14.75
-8.91
-1.84
5.12
10.23
11.80
8.90
1.72
-8.39
-19.24
-28.55
-34.50
-36.16
-33.58
-27.68
-19.94
-12.09
-5.68
-1.76
-0.60
-1.73
-4.14
-6.75
-8.78
-9.81
-9.78
-8.69
-6.56
-3.54
-0.13
2.71
3.78
2.09
-2.70
-10.02
-18.63
-27.12
-34.34
-39.81
-43.62
-46.29
-48.45
-50.63
-53.10
-55.84
-58.48
-60.34
-60.44
-57.59
-50.56
-38.35
-20.55
2.37
28.90
56.70
83.02
105.27
121.57
131.00
133.62
130.41
122.86
112.73
101.85
91.74
83.58
78.12
75.68
76.15
78.98
83.09
86.94
88.79
87.19
81.56
72.57
62.07
52.61
46.74
46.20
51.50
61.84
75.26
89.10
100.50
106.90
106.76
99.95
87.95
73.53
59.98
50.01
44.96
44.38
46.40
48.54
48.76
46.07
40.68
33.62
26.05
18.78
11.93
5.09
-2.52
-11.75
-23.42
-38.12
-56.21
-77.78
-102.58
-129.92
-158.76
-187.63
-214.79
-238.36
-256.71
-268.74
-274.34
-274.45
-270.87
-265.75
-261.11
-258.36
-258.18
-260.26
-263.30
-264.98
-262.22
-251.69
-230.74
-198.13
-154.50
-102.24
-44.94
13.38
68.80
117.89
157.76
186.23
201.88
204.33
194.28
173.48
144.53
110.58
74.82
40.08
8.46
-18.68
-40.44
-55.90
-63.96
-63.56
-54.41
-37.69
-16.29
5.63
23.86
35.21
38.18
32.82
20.12
1.44
-21.58
-46.68
-70.68
-89.78
-100.33
-100.01
-88.73
-68.65
-43.46
-17.07
7.42
28.35
45.31
58.56
68.45
75.05
78.24
78.03
74.89
69.86
64.37
59.85
57.26
56.91
58.54
61.59
65.58
70.24
75.43
80.97
86.44
91.19
94.37
95.18
92.88
86.80
76.46
61.84
43.78
24.23
6.21
-6.88
-12.23
-8.47
3.86
22.61
44.89
68.05
90.28
110.69
128.92
144.57
157.06
165.81
170.67
172.26
171.70
170.12
167.91
164.29
157.46
145.20
125.87
99.05
65.91
28.90
-8.81
-43.99
-74.06
-97.45
-113.88
-124.29
-130.65
-135.29
-140.18
-146.20
-152.81
-158.29
-160.54
-158.18
-151.20
-141.06
-129.92
-119.56
-110.63
-102.58
-94.40
-85.59
-76.82
-69.72
-66.05
-66.63
-70.81
-76.76
-82.33
-86.04
-87.45
-87.05
-85.59
-83.50
-80.72
-76.96
-72.03
-65.99
-59.01
-51.04
-41.76
-30.84
-18.47
-5.54
6.54
16.50
23.99
29.75
35.05
40.82
46.92
52.15
55.19
55.69
54.93
55.51
60.33
71.17
87.86
108.17
128.51
145.02
154.58
155.56
148.05
133.74
115.49
96.66
80.50
69.54
65.30
68.24
77.73
92.18
109.18
125.77
138.91
145.98
145.34
136.72
121.25
101.23
79.53
58.83
40.83
25.89
13.10
0.93
-11.86
-25.53
-39.31
-52.00
-62.71
-71.50
-79.23
-86.95
-95.19
-103.48
-110.74
-115.86
-118.36
-118.58
-117.41
-115.71
-113.83
-111.60
-108.59
-104.56
-99.70
-94.58
-89.94
-86.35
-83.91
-82.15
-80.11
-76.46
-69.85
-59.18
-43.97
-24.53
-1.94
22.18
45.99
67.76
86.18
100.49
110.44
116.24
118.37
117.47
114.22
109.24
102.98
95.67
87.25
77.50
66.21
53.32
39.07
23.88
8.10
-8.30
-25.78
-45.05
-66.76
-91.12
-117.80
-145.81
-173.49
-198.45
-217.75
-228.39
-228.21
-216.79
-195.83
-168.69
-139.29
-110.66
-84.30
-60.26
-38.10
-17.78
-0.09
13.81
23.18
28.38
30.83
32.39
34.32
36.65
38.16
37.02
31.96
23.01
11.91
1.58
-4.96
-5.74
-0.53
9.11
20.41
30.39
36.50
37.18
32.07
21.88
8.31
-6.41
-20.04
-30.89
-38.29
-42.55
-44.51
-44.94
-44.09
-41.62
-36.99
-29.96
-20.84
-10.24
1.36
13.99
28.34
45.34
65.70
89.44
115.84
143.73
172.03
200.15
228.07
255.99
283.81
310.56
334.34
352.63
362.91
363.36
353.16
332.60
302.80
265.52
223.06
178.24
134.24
94.13
60.18
33.25
12.58
-3.85
-18.51
-33.41
-49.46
-66.47
-83.51
-99.46
-113.55
-125.50
-135.49
-143.95
-151.47
-158.53
-165.53
-172.65
-179.83
-186.78
-193.11
-198.50
-202.77
-205.95
-208.14
-209.35
-209.46
-208.19
-205.30
-200.68
-194.44
-186.80
-178.07
-168.57
-158.67
-148.78
-139.17
-129.70
-119.59
-107.47
-91.73
-71.22
-45.71
-16.20
15.28
46.20
74.15
97.34
114.79
126.44
132.85
135.07
134.34
131.99
129.26
127.16
126.29
126.60
127.38
127.34
125.02
119.34
109.94
97.29
82.27
65.83
48.64
31.23
14.10
-2.13
-16.82
-29.70
-40.90
-51.15
-61.60
-73.29
-86.88
-102.56
-120.00
-138.35
-156.19
-171.23
-180.60
-181.53
-172.26
-152.61
-124.44
-91.23
-57.20
-26.46
-1.73
15.55
25.01
27.11
23.36
15.83
6.83
-1.42
-7.67
-10.70
-10.11
-6.62
-1.44
4.83
11.59
18.08
23.18
24.68
22.26
16.34
7.21
-4.48
-16.98
-28.64
-38.23
-44.91
-49.67
-51.05
-47.40
-38.43
-24.20
-4.10
21.91
52.86
86.69
118.93
149.20
179.33
212.02
237.16
246.08
236.18
212.97
199.96
197.27
201.13
209.56
213.02
209.11
199.73
187.74
174.94
161.32
143.37
120.69
94.19
64.84
34.76
6.75
-17.00
-35.46
-48.83
-59.77
-68.69
-75.53
-80.82
-84.55
-86.32
-85.92
-83.38
-79.31
-75.82
-73.70
-73.55
-76.15
-81.63
-89.52
-98.85
-108.28
-116.36
-122.23
-124.49
-122.03
-114.50
-102.11
-85.74
-66.85
-47.04
-27.79
-10.35
4.80
17.54
27.83
35.60
40.66
42.89
42.49
40.11
36.61
32.89
29.50
26.48
23.49
20.10
16.14
11.85
7.78
4.40
1.88
-0.10
-2.13
-4.75
-8.22
-12.42
-16.98
-21.52
-25.82
-29.74
-33.23
-36.27
-38.87
-41.19
-43.59
-46.47
-49.91
-53.39
-55.73
-55.38
-51.06
-42.34
-29.93
-15.42
-0.77
12.35
22.96
30.80
35.99
38.82
39.52
38.35
35.75
32.30
28.67
25.36
22.66
20.64
19.25
18.48
18.28
18.61
19.30
20.19
21.10
21.84
22.12
21.56
19.74
16.34
11.49
5.84
0.52
-3.37
-5.29
-5.68
-5.89
-7.67
-12.33
-19.94
-29.07
-37.09
-41.03
-38.51
-28.53
-11.71
10.02
34.02
57.65
78.60
95.14
106.14
110.98
109.63
102.58
90.82
75.72
58.84
41.57
25.09
10.23
-2.43
-12.46
-19.52
-23.30
-23.65
-20.75
-15.19
-8.00
-0.50
5.87
9.84
10.54
7.53
0.93
-8.80
-20.90
-34.58
-49.04
-63.54
-77.46
-90.19
-101.15
-109.62
-114.76
-115.56
-111.11
-100.87
-85.09
-64.99
-42.63
-20.46
-0.70
15.17
26.48
33.28
35.90
34.74
30.31
23.36
15.13
7.11
0.76
-3.02
-4.18
-3.50
-2.20
-1.45
-2.02
-4.10
-7.50
-11.86
-16.89
-22.37
-28.15
-33.99
-39.59
-44.56
-48.60
-51.56
-53.50
-54.74
-55.87
-57.73
-61.24
-67.12
-75.48
-85.45
-95.13
-102.02
-103.71
-98.78
-87.30
-70.79
-51.74
-32.70
-15.68
-1.74
8.90
16.46
21.32
23.83
24.39
23.51
21.80
19.84
18.08
16.71
15.75
15.21
15.12
15.58
16.63
18.14
19.78
21.11
21.72
21.36
19.92
17.41
13.89
9.46
4.24
-1.60
-7.95
-14.90
-22.68
-31.53
-41.28
-51.04
-59.12
-63.40
-62.04
-54.14
-40.17
-21.84
-1.54
18.35
35.96
50.09
60.15
66.04
67.94
66.38
62.12
56.08
49.19
42.23
35.82
30.45
26.45
24.02
23.02
22.96
23.00
22.25
20.10
16.43
11.57
6.01
0.11
-6.10
-12.80
-20.21
-28.37
-37.14
-46.26
-55.40
-64.12
-71.59
-76.43
-76.96
-71.69
-60.03
-42.78
-22.14
-1.02
17.82
32.54
42.54
48.25
50.58
50.43
48.42
44.89
40.16
34.64
28.94
23.71
19.50
16.65
15.17
14.83
15.16
15.59
15.50
14.37
11.91
8.17
3.47
-1.64
-6.68
-11.36
-15.74
-20.16
-25.08
-30.88
-37.65
-44.93
-51.68
-56.35
-57.23
-52.91
-42.81
-27.47
-8.53
11.68
30.76
46.87
59.03
67.17
71.82
73.67
73.32
71.12
67.35
62.32
56.51
50.61
45.30
41.11
38.23
36.51
35.58
34.97
34.26
33.14
31.43
29.06
26.10
22.79
19.45
16.33
13.47
10.50
6.77
1.60
-5.31
-13.46
-21.48
-27.48
-29.62
-26.79
-19.05
-7.63
5.46
18.10
28.62
36.17
40.69
42.65
42.64
41.07
38.19
34.14
29.25
24.07
19.40
15.99
14.30
14.32
15.52
17.11
18.31
18.57
17.70
15.66
12.44
7.72
0.96
-8.48
-21.08
-36.87
-55.35
-75.66
-96.70
-117.26
-135.93
-151.06
-160.77
-163.37
-157.87
-144.46
-124.66
-100.95
-76.12
-52.53
-31.77
-14.60
-1.19
8.59
15.18
19.30
22.01
24.54
27.93
32.72
38.77
45.42
51.72
56.76
59.82
60.42
58.25
53.21
45.40
35.15
23.00
9.63
-4.20
-17.65
-29.85
-40.00
-47.60
-52.55
-55.26
-56.25
-55.83
-53.72
-49.14
-41.28
-29.89
-15.75
-0.58
13.53
24.90
32.86
37.77
40.67
42.58
44.08
45.18
45.61
45.22
44.20
43.07
42.33
42.26
42.65
42.99
42.70
41.39
38.98
35.59
31.44
26.67
21.35
15.54
9.36
3.04
-3.22
-9.30
-15.32
-21.61
-28.58
-36.39
-44.64
-52.18
-57.23
-57.92
-52.88
-41.87
-25.99
-7.33
11.62
28.66
42.39
52.27
58.37
61.08
60.79
57.92
52.92
46.41
39.20
32.16
26.05
21.31
18.00
15.76
14.02
12.22
9.98
7.14
3.76
-0.02
-4.06
-8.19
-12.29
-16.24
-20.02
-23.76
-27.86
-32.74
-38.75
-45.79
-53.07
-59.22
-62.50
-61.38
-54.97
-43.43
-27.87
-10.10
7.83
24.14
37.56
47.43
53.64
56.38
56.07
53.11
48.00
41.29
33.63
25.77
18.47
12.35
7.78
4.65
2.53
0.80
-1.08
-3.31
-5.68
-7.78
-9.26
-10.08
-10.58
-11.34
-12.97
-15.94
-20.43
-26.43
-33.63
-41.37
-48.51
-53.52
-54.76
-51.08
-42.22
-29.08
-13.41
2.72
17.55
29.98
39.53
46.09
49.62
50.06
47.44
42.07
34.63
26.06
17.39
9.49
2.97
-1.93
-5.30
-7.47
-8.99
-10.41
-12.16
-14.48
-17.41
-20.86
-24.73
-28.99
-33.65
-38.76
-44.36
-50.55
-57.42
-64.91
-72.48
-78.93
-82.50
-81.28
-73.96
-60.45
-42.05
-21.23
-0.74
17.14
31.14
41.04
47.28
50.48
51.07
49.40
45.87
41.16
36.20
31.95
29.06
27.66
27.33
27.41
27.25
26.49
25.04
23.03
20.59
17.77
14.61
11.11
7.30
3.18
-1.40
-6.73
-13.26
-21.31
-30.73
-40.66
-49.52
-55.29
-56.12
-50.96
-39.97
-24.56
-7.02
10.15
24.90
35.96
42.98
46.23
46.26
43.71
39.07
32.77
25.24
17.00
8.70
1.01
-5.39
-10.10
-12.98
-14.22
-14.21
-13.35
-11.94
-10.11
-7.97
-5.72
-3.71
-2.40
-2.25
-3.54
-6.35
-10.66
-16.41
-23.48
-31.43
-39.27
-45.37
-47.77
-44.69
-35.19
-19.64
0.35
22.34
43.74
62.40
76.97
86.84
91.98
92.61
89.05
81.73
71.27
58.63
44.96
31.54
19.52
9.68
2.33
-2.58
-5.41
-6.60
-6.56
-5.58
-3.85
-1.59
0.81
2.63
2.99
1.00
-4.00
-12.19
-23.26
-36.58
-51.30
-66.33
-80.28
-91.38
-97.66
-97.42
-89.78
-75.10
-54.96
-31.81
-8.36
13.00
30.47
43.05
50.40
52.78
50.87
45.66
38.24
29.61
20.59
11.76
3.58
-3.56
-9.36
-13.62
-16.35
-17.76
-18.20
-18.05
-17.58
-16.88
-15.95
-14.81
-13.60
-12.68
-12.56
-13.78
-16.82
-22.01
-29.56
-39.34
-50.65
-61.99
-71.07
-75.29
-72.48
-61.74
-43.89
-21.30
2.89
25.66
44.91
59.65
69.79
75.66
77.72
76.47
72.55
66.90
60.55
54.41
49.06
44.61
40.85
37.43
34.02
30.34
26.13
21.10
15.09
8.15
0.59
-7.05
-14.29
-20.85
-26.73
-32.15
-37.31
-42.32
-47.21
-52.05
-56.93
-61.81
-66.11
-68.58
-67.42
-60.86
-47.98
-29.27
-6.71
16.76
38.22
55.52
67.71
74.85
77.51
76.33
71.83
64.61
55.59
46.08
37.63
31.61
28.79
29.18
32.02
36.09
40.06
42.77
43.44
41.72
37.63
31.49
23.75
14.80
4.95
-5.61
-16.71
-28.20
-39.80
-51.19
-61.96
-71.46
-78.76
-82.56
-81.39
-74.07
-60.28
-40.87
-17.94
5.76
27.56
45.59
59.16
68.50
74.37
77.43
78.02
76.17
71.94
65.65
58.02
50.10
42.92
37.31
33.65
31.83
31.39
31.67
32.04
32.01
31.37
30.05
28.07
25.34
21.62
16.57
9.85
1.26
-9.16
-20.97
-33.34
-44.85
-53.69
-57.87
-55.80
-46.88
-31.92
-13.03
6.90
25.03
39.35
48.89
53.71
54.39
51.59
45.85
37.67
27.76
17.15
7.13
-1.08
-6.70
-9.75
-11.00
-11.65
-12.82
-15.11
-18.42
-22.17
-25.71
-28.76
-31.53
-34.64
-38.74
-44.23
-51.17
-59.31
-68.11
-76.70
-83.76
-87.61
-86.45
-79.01
-65.17
-46.19
-24.50
-2.94
16.03
30.88
41.11
46.95
48.85
47.33
42.89
36.28
28.49
20.82
14.50
10.40
8.78
9.21
10.72
12.18
12.65
11.64
9.19
5.73
1.75
-2.44
-6.85
-11.79
-17.64
-24.67
-32.81
-41.49
-49.66
-55.82
-58.37
-55.98
-48.03
-34.92
-18.01
0.70
19.14
35.65
49.19
59.38
66.08
69.31
69.03
65.35
58.66
49.84
40.14
30.92
23.33
17.92
14.55
12.51
10.86
8.84
6.18
3.07
-0.11
-3.14
-6.31
-10.46
-16.76
-26.48
-40.57
-59.39
-82.37
-107.75
-132.43
-152.34
-163.28
-162.09
-147.74
-121.73
-87.70
-50.31
-13.95
18.09
43.78
62.06
72.46
74.96
70.21
59.71
45.75
30.92
17.43
6.52
-1.65
-7.74
-12.71
-17.33
-21.90
-26.31
-30.24
-33.36
-35.49
-36.70
-37.35
-38.10
-39.94
-43.99
-51.07
-61.23
-73.25
-84.66
-92.29
-93.23
-85.90
-70.62
-49.50
-25.54
-1.65
20.24
39.20
54.91
66.98
74.59
76.53
71.76
60.06
42.40
21.08
-0.62
-18.88
-29.97
-30.76
-19.29
4.80
39.99
82.97
129.08
173.06
209.98
235.94
248.61
247.17
232.00
204.15
165.02
116.53
61.63
4.79
-48.01
-90.28
-116.57
-124.16
-113.92
-90.03
-58.57
-25.81
3.14
24.80
36.97
38.27
27.98
6.39
-24.68
-61.66
-99.71
-133.79
-159.92
-175.99
-182.05
-179.84
-171.99
-161.23
-149.65
-138.44
-127.93
-117.81
-107.69
-97.48
-87.76
-79.79
-75.18
-75.18
-79.93
-87.86
-95.69
-99.12
-94.01
-77.65
-49.60
-11.87
31.68
76.30
117.32
150.89
174.26
186.01
186.05
175.63
157.15
133.76
108.63
84.34
62.42
43.40
27.12
13.32
1.91
-6.87
-12.55
-14.66
-12.96
-7.63
0.64
10.60
20.50
28.49
32.98
33.17
29.46
23.40
17.36
13.80
14.56
20.37
30.73
44.14
58.51
71.70
81.82
87.53
88.21
83.92
75.44
64.11
51.57
39.53
29.42
22.14
17.92
16.34
16.49
17.30
17.92
17.98
17.67
17.56
18.26
20.08
22.87
26.08
28.92
30.57
30.37
27.91
23.14
16.55
9.18
2.46
-2.20
-3.79
-2.11
2.26
8.19
14.53
20.40
25.34
29.26
32.09
33.67
33.73
32.02
28.61
23.95
18.82
14.05
10.22
7.48
5.58
4.10
2.75
1.47
0.34
-0.64
-1.72
-3.35
-5.93
-9.66
-14.40
-19.86
-25.71
-31.68
-37.44
-42.46
-45.96
-47.16
-45.59
-41.46
-35.66
-29.54
-24.38
-21.03
-19.72
-20.16
-21.86
-24.26
-26.82
-28.97
-30.10
-29.67
-27.45
-23.62
-18.77
-13.73
-9.25
-5.83
-3.69
-2.80
-3.09
-4.44
-6.68
-9.55
-12.66
-15.40
-16.98
-16.44
-12.78
-5.21
6.60
22.18
40.23
58.80
75.70
89.00
97.36
100.22
97.66
90.26
78.87
64.48
48.25
31.43
15.31
1.08
-10.37
-18.60
-23.65
-26.00
-26.36
-25.52
-24.20
-23.07
-22.72
-23.75
-26.62
-31.39
-37.56
-43.99
-49.10
-51.34
-49.70
-44.10
-35.44
-25.31
-15.53
-7.64
-2.63
-0.93
-2.49
-7.05
-14.19
-23.39
-33.98
-45.06
-55.60
-64.52
-70.94
-74.37
-74.89
-73.08
-69.80
-65.88
-61.91
-58.23
-55.14
-53.15
-52.91
-55.00
-59.37
-65.03
-70.16
-72.62
-70.84
-64.49
-54.65
-43.30
-32.63
-24.25
-18.89
-16.50
-16.61
-18.68
-22.09
-26.20
-30.16
-32.99
-33.76
-31.90
-27.34
-20.37
-11.54
-1.37
9.63
20.86
31.57
40.89
47.95
52.08
53.06
51.17
47.29
42.92
39.90
40.12
44.93
54.60
68.14
83.50
98.19
109.98
117.46
120.15
118.26
112.39
103.28
91.81
78.97
65.77
53.08
41.45
31.07
21.93
13.94
7.14
1.59
-2.73
-6.12
-9.15
-12.53
-17.05
-23.37
-31.90
-42.57
-54.54
-66.10
-74.89
-78.48
-75.23
-64.99
-49.20
-30.50
-11.79
4.60
17.41
26.29
31.41
32.93
30.82
25.08
16.02
4.49
-8.18
-20.46
-31.10
-39.39
-45.30
-49.32
-52.12
-54.31
-56.28
-58.21
-60.22
-62.47
-65.15
-68.51
-72.78
-78.16
-84.89
-93.24
-103.34
-114.91
-126.84
-137.24
-143.63
-143.74
-136.28
-121.58
-101.54
-79.23
-57.99
-40.62
-28.86
-23.32
-23.62
-28.71
-37.26
-47.87
-59.33
-70.70
-81.40
-91.14
-99.58
-105.99
-108.77
-105.16
-91.44
-63.79
-19.83
39.70
109.95
182.30
246.40
293.03
316.87
317.79
300.21
270.89
236.27
200.65
165.79
131.77
98.26
65.39
33.78
4.32
-22.06
-44.14
-60.15
-67.85
-65.25
-51.73
-29.00
-1.01
27.21
51.16
68.36
78.75
83.98
86.06
86.19
84.34
79.71
71.62
60.32
47.22
34.50
24.30
18.05
16.12
17.90
22.40
28.70
36.22
44.56
53.18
61.11
67.07
69.76
68.44
63.22
55.02
45.19
34.98
25.13
15.78
6.70
-2.38
-11.47
-20.17
-27.91
-34.22
-39.11
-43.28
-47.95
-54.65
-64.60
-78.25
-94.80
-112.08
-126.84
-135.46
-134.95
-123.84
-102.74
-74.20
-42.03
-10.18
18.21
41.39
58.97
71.36
79.24
83.14
83.37
80.28
74.53
67.19
59.55
52.87
47.99
45.24
44.40
44.92
46.06
47.02
47.03
45.52
42.17
37.13
30.99
24.68
19.14
15.02
12.50
11.32
10.87
10.56
9.88
8.56
6.57
4.10
1.46
-1.08
-3.59
-6.65
-11.22
-18.27
-28.01
-39.43
-50.24
-57.54
-58.96
-53.65
-42.77
-29.11
-16.09
-6.64
-2.47
-3.88
-10.15
-20.05
-32.23
-45.40
-58.26
-69.43
-77.62
-81.80
-81.59
-77.46
-70.65
-62.76
-55.24
-48.82
-43.31
-37.87
-31.47
-23.39
-13.61
-2.78
8.01
17.61
25.13
30.10
32.52
32.73
31.26
28.67
25.37
21.65
17.69
13.56
9.29
4.79
-0.02
-5.10
-10.00
-13.80
-15.21
-12.99
-6.44
4.22
17.87
32.91
47.80
61.46
73.41
83.59
92.00
98.54
103.02
105.33
105.59
104.30
102.12
99.64
97.04
93.96
89.64
83.17
73.93
61.89
47.61
32.16
16.62
1.82
-11.93
-24.83
-37.49
-50.60
-64.68
-79.92
-96.04
-112.33
-127.84
-141.55
-152.56
-160.14
-163.88
-163.66
-159.74
-152.72
-143.34
-132.12
-119.06
-103.69
-85.31
-63.57
-38.96
-12.84
12.90
36.55
57.01
74.00
87.84
98.95
107.62
113.90
117.85
119.68
119.82
118.84
117.35
115.84
114.58
113.55
112.35
110.35
106.82
101.22
93.43
83.79
72.92
61.43
49.66
37.59
24.92
11.34
-3.26
-18.63
-34.22
-49.22
-62.74
-73.99
-82.47
-88.06
-91.05
-92.12
-92.16
-92.00
-92.12
-92.43
-92.22
-90.35
-85.68
-77.58
-66.23
-52.63
-38.25
-24.52
-12.40
-2.22
6.07
12.64
17.47
20.40
21.29
20.30
17.93
15.01
12.43
10.93
10.89
12.39
15.16
18.72
22.43
25.60
27.62
28.09
26.85
24.05
20.02
15.17
9.93
4.65
-0.40
-5.08
-9.36
-13.32
-17.11
-20.84
-24.62
-28.49
-32.49
-36.69
-41.27
-46.53
-52.76
-60.10
-68.11
-75.69
-81.10
-82.35
-77.92
-67.33
-51.39
-32.01
-11.55
7.85
24.73
38.45
48.91
56.22
60.58
62.16
61.21
58.24
53.92
49.06
44.46
40.72
38.07
36.34
35.05
33.57
31.47
28.63
25.21
21.48
17.60
13.43
8.65
2.93
-3.80
-11.15
-18.44
-24.87
-29.86
-33.23
-35.24
-36.48
-37.63
-39.31
-41.99
-45.85
-50.60
-55.35
-58.69
-58.96
-54.81
-45.76
-32.50
-16.75
-0.57
14.30
26.90
37.07
44.98
50.62
53.65
53.58
50.22
44.03
36.11
27.85
20.48
14.72
10.72
8.26
7.02
6.74
7.21
8.25
9.60
10.86
11.60
11.32
9.61
6.22
1.22
-4.97
-11.63
-17.88
-23.02
-26.75
-29.25
-31.13
-33.25
-36.43
-41.23
-47.69
-55.19
-62.39
-67.39
-68.16
-63.19
-52.08
-35.72
-16.14
4.15
22.94
38.81
51.23
60.21
65.88
68.20
67.11
62.78
56.00
48.14
40.78
35.20
31.91
30.62
30.49
30.68
30.69
30.49
30.38
30.59
31.02
31.15
30.19
27.29
21.87
13.80
3.39
-8.73
-21.84
-35.37
-49.05
-62.88
-77.08
-91.86
-107.30
-123.16
-138.70
-152.57
-162.90
-167.60
-165.06
-154.65
-137.21
-114.87
-90.47
-66.72
-45.58
-27.98
-13.95
-3.09
5.06
10.85
14.60
16.72
17.75
18.36
19.15
20.47
22.44
25.01
28.07
31.56
35.48
39.70
43.91
47.49
49.69
49.79
47.41
42.68
36.23
29.05
22.21
16.54
12.46
9.77
7.83
5.64
2.35
-2.42
-8.10
-13.17
-15.46
-12.89
-4.20
10.50
29.63
50.63
70.73
87.65
100.07
107.64
110.65
109.75
105.68
99.20
91.09
82.13
73.11
64.66
57.23
51.05
46.13
42.33
39.37
36.84
34.21
30.91
26.46
20.60
13.38
5.19
-3.34
-11.46
-18.54
-24.26
-28.74
-32.54
-36.53
-41.48
-47.61
-54.15
-59.25
-60.30
-54.69
-40.78
-18.65
9.75
41.01
71.20
96.88
115.80
126.97
130.48
127.03
117.53
103.05
84.79
64.05
42.21
20.53
0.07
-18.37
-34.28
-47.35
-57.48
-64.84
-69.94
-73.64
-77.03
-81.18
-86.83
-94.23
-103.11
-112.88
-122.98
-133.17
-143.58
-154.66
-166.96
-180.90
-196.50
-213.07
-228.96
-241.51
-247.47
-243.87
-229.17
-204.09
-171.70
-136.67
-103.77
-76.50
-56.34
-42.77
-34.03
-27.96
-22.68
-16.80
-9.47
-0.25
10.93
23.90
38.29
53.67
69.54
85.24
99.81
111.99
120.36
123.84
121.99
115.36
105.37
93.81
82.44
72.46
64.42
58.23
53.18
47.92
40.53
29.09
12.57
-8.01
-29.23
-45.75
-52.00
-44.26
-22.22
10.91
49.63
88.32
122.90
151.34
173.06
187.88
195.35
195.05
187.21
173.37
156.17
138.62
122.91
110.00
99.67
91.20
84.24
79.16
76.86
78.25
83.65
92.55
103.69
115.41
126.05
134.35
139.63
141.82
141.23
138.43
133.86
127.77
120.14
110.84
99.86
87.54
74.60
62.02
50.64
40.89
32.64
25.29
18.04
10.33
1.87
-7.32
-17.18
-27.71
-38.98
-50.87
-62.97
-74.45
-84.33
-91.77
-96.34
-98.10
-97.49
-95.01
-91.15
-86.23
-80.56
-74.48
-68.40
-62.79
-58.04
-54.35
-51.75
-50.06
-49.00
-48.24
-47.47
-46.46
-45.14
-43.60
-42.11
-41.07
-40.89
-41.87
-44.11
-47.44
-51.32
-54.83
-56.78
-55.90
-51.30
-42.92
-31.76
-19.67
-8.82
-1.00
2.98
3.33
1.04
-2.69
-6.93
-11.17
-15.22
-18.93
-22.00
-24.06
-24.84
-24.37
-23.03
-21.43
-20.10
-19.30
-19.01
-19.02
-19.12
-19.24
-19.42
-19.73
-20.11
-20.40
-20.34
-19.73
-18.54
-16.88
-15.04
-13.36
-12.15
-11.54
-11.41
-11.36
-10.72
-8.84
-5.35
-0.34
5.55
11.32
15.96
18.83
19.86
19.47
18.31
16.97
15.74
14.62
13.51
12.41
11.51
11.08
11.29
12.02
12.92
13.59
13.85
13.78
13.64
13.63
13.74
13.73
13.35
12.49
11.32
10.05
8.85
7.71
6.46
4.94
3.17
1.37
-0.15
-1.08
-1.16
-0.24
1.71
4.56
7.96
11.34
13.98
15.22
14.67
12.29
8.43
3.62
-1.54
-6.51
-10.89
-14.44
-17.08
-18.86
-19.99
-20.69
-21.23
-21.75
-22.34
-22.99
-23.67
-24.32
-24.86
-25.32
-25.66
-25.92
-26.15
-26.39
-26.62
-26.87
-27.12
-27.34
-27.57
-27.78
-27.91
-27.77
-27.00
-25.06
-21.41
-15.68
-7.99
0.90
9.73
17.01
21.55
22.82
21.11
17.25
12.32
7.17
2.25
-2.34
-6.66
-10.70
-14.35
-17.36
-19.56
-20.95
-21.68
-22.09
-22.47
-23.07
-23.94
-25.02
-26.11
-27.06
-27.73
-28.11
-28.28
-28.38
-28.60
-29.09
-29.96
-31.20
-32.65
-33.78
-33.79
-31.67
-26.53
-18.09
-6.91
5.53
17.22
26.29
31.60
33.08
31.55
28.23
24.20
20.04
15.84
11.52
7.10
2.82
-0.90
-3.67
-5.40
-6.26
-6.72
-7.31
-8.45
-10.27
-12.65
-15.24
-17.63
-19.53
-20.86
-21.74
-22.39
-23.02
-23.77
-24.71
-25.92
-27.46
-29.22
-30.71
-30.93
-28.64
-22.79
-13.13
-0.55
13.07
25.39
34.44
39.16
39.60
36.67
31.58
25.47
19.13
13.09
7.68
3.22
-0.02
-1.90
-2.44
-1.93
-0.91
-0.11
-0.17
-1.50
-4.04
-7.28
-10.52
-13.18
-15.03
-16.30
-17.49
-19.08
-21.31
-24.16
-27.47
-31.03
-34.48
-37.15
-37.92
-35.44
-28.64
-17.43
-3.04
12.16
25.40
34.45
38.35
37.42
32.95
26.41
18.95
11.27
3.76
-3.25
-9.28
-13.88
-16.68
-17.71
-17.41
-16.52
-15.91
-16.28
-17.95
-20.77
-24.12
-27.22
-29.45
-30.62
-31.06
-31.54
-32.86
-35.62
-40.07
-46.01
-52.78
-59.12
-63.13
-62.61
-55.60
-41.33
-20.83
3.07
26.57
46.20
59.84
67.22
69.45
68.04
64.20
58.45
50.94
41.98
32.36
23.31
16.02
11.24
8.98
8.66
9.31
9.92
9.70
8.16
5.18
0.97
-3.96
-9.01
-13.60
-17.49
-20.81
-24.04
-27.82
-32.74
-39.19
-47.12
-55.78
-63.46
-67.66
-65.60
-55.27
-36.43
-11.04
17.08
43.51
64.58
78.38
84.81
85.04
80.56
72.65
62.29
50.33
37.79
25.85
15.70
8.13
3.42
1.21
0.66
0.67
0.24
-1.33
-4.27
-8.41
-13.35
-18.60
-23.78
-28.63
-33.02
-36.97
-40.68
-44.62
-49.55
-56.34
-65.55
-76.81
-88.40
-97.28
-99.86
-93.28
-76.66
-51.71
-22.36
6.58
30.95
48.26
57.95
60.73
57.74
50.05
38.59
24.44
9.12
-5.63
-18.25
-27.92
-34.74
-39.60
-43.70
-48.02
-53.05
-58.75
-64.81
-70.89
-76.76
-82.29
-87.30
-91.34
-93.82
-94.22
-92.36
-88.63
-83.92
-79.46
-76.47
-75.97
-78.36
-83.16
-88.78
-92.56
-91.35
-82.47
-64.76
-39.23
-8.96
21.83
49.05
69.80
82.95
88.88
89.01
85.26
79.65
74.17
70.58
70.20
73.61
80.47
89.58
99.09
106.97
111.56
111.90
108.04
100.89
91.90
82.51
73.81
66.18
59.35
52.59
44.99
35.66
23.97
9.57
-7.65
-27.64
-50.21
-74.88
-100.64
-125.68
-147.40
-162.98
-170.16
-168.12
-157.78
-141.27
-121.04
-99.06
-76.65
-54.96
-35.39
-19.53
-8.52
-2.15
1.55
5.75
13.54
26.57
44.46
65.02
85.21
102.13
113.68
118.72
116.96
108.84
95.62
79.29
62.32
47.06
35.17
27.16
22.33
19.17
15.80
10.42
1.70
-10.92
-26.91
-44.16
-59.07
-67.10
-64.11
-47.86
-19.16
18.18
58.55
96.36
127.71
151.06
166.76
175.96
179.72
178.57
172.84
163.09
150.47
136.56
122.97
110.95
101.08
93.36
87.33
82.37
77.79
72.98
67.44
60.92
53.42
45.13
36.27
26.88
16.67
5.12
-8.36
-24.30
-42.99
-64.48
-88.21
-112.70
-135.15
-151.76
-158.55
-152.78
-134.27
-105.82
-72.43
-39.57
-11.43
10.22
25.75
36.66
44.30
49.14
50.93
49.35
44.63
37.66
29.70
21.82
14.66
8.41
2.98
-1.64
-5.46
-8.49
-11.01
-13.40
-16.18
-19.72
-24.19
-29.57
-35.77
-42.75
-50.60
-59.59
-70.07
-82.33
-96.23
-110.78
-123.88
-132.42
-133.06
-123.34
-102.74
-73.14
-38.39
-3.15
28.52
54.11
72.91
85.51
92.94
95.96
94.82
89.58
80.61
68.93
56.27
44.62
35.63
30.06
27.58
26.98
26.74
25.51
22.55
17.77
11.58
4.56
-2.69
-9.77
-16.44
-22.71
-28.80
-35.29
-43.11
-53.30
-66.56
-82.49
-99.04
-112.61
-118.90
-114.28
-97.41
-69.82
-35.64
-0.17
31.80
57.28
75.38
86.69
92.37
93.33
90.11
83.21
73.46
62.25
51.33
42.36
36.43
33.74
33.67
35.05
36.50
36.89
35.52
32.23
27.28
21.16
14.25
6.81
-1.13
-9.65
-18.87
-28.99
-40.41
-53.74
-69.47
-87.35
-105.76
-121.45
-130.16
-127.92
-112.63
-85.05
-48.75
-9.02
28.84
60.98
85.50
102.21
111.83
115.32
113.53
107.39
98.04
86.92
75.55
65.21
56.80
50.69
46.77
44.60
43.46
42.46
40.72
37.52
32.49
25.66
17.40
8.29
-1.11
-10.40
-19.46
-28.44
-37.88
-48.59
-61.59
-77.58
-96.31
-115.91
-132.83
-142.56
-140.97
-125.86
-97.88
-60.49
-18.91
21.56
56.85
84.72
104.65
117.09
122.93
123.07
118.53
110.46
100.20
89.13
78.41
68.85
60.84
54.39
49.25
45.00
41.19
37.39
33.22
28.39
22.65
15.80
7.72
-1.52
-11.62
-22.03
-32.14
-41.60
-50.71
-60.50
-72.46
-87.67
-105.86
-124.79
-140.38
-147.82
-143.21
-125.06
-94.94
-57.07
-16.94
20.27
50.93
73.35
87.46
94.18
94.75
90.41
82.33
71.68
59.57
46.99
34.65
23.04
12.51
3.40
-3.87
-9.02
-12.03
-13.36
-13.82
-14.40
-15.78
-18.21
-21.46
-25.05
-28.59
-32.03
-35.72
-40.35
-46.87
-56.20
-68.85
-84.34
-100.67
-114.24
-120.55
-115.49
-96.91
-65.62
-25.27
18.71
60.82
96.97
125.09
144.91
157.20
162.87
162.69
157.25
147.36
134.22
119.42
104.64
91.18
79.72
70.19
61.96
54.22
46.22
37.44
27.59
16.50
4.06
-9.77
-24.77
-40.36
-55.64
-69.65
-81.67
-91.59
-100.14
-108.63
-118.34
-129.58
-141.01
-149.49
-150.88
-141.54
-119.77
-86.73
-46.27
-3.63
36.09
69.27
94.26
110.96
120.18
122.93
120.11
112.69
101.84
89.09
76.11
64.47
55.25
48.90
45.16
43.24
42.01
40.30
37.10
31.79
24.25
14.86
4.35
-6.32
-16.28
-24.97
-32.36
-39.02
-46.11
-55.07
-67.05
-82.12
-98.67
-113.25
-121.29
-118.48
-102.37
-73.51
-35.44
6.34
46.12
79.50
104.21
119.98
127.75
128.93
124.86
116.83
106.14
94.25
82.49
71.89
62.91
55.46
49.17
43.56
38.23
32.82
26.96
20.26
12.33
2.94
-7.92
-20.01
-32.91
-46.15
-59.21
-71.69
-83.36
-94.37
-105.32
-116.95
-129.62
-142.54
-153.38
-158.58
-154.49
-138.82
-111.84
-76.68
-38.32
-2.10
27.96
49.98
64.12
71.76
74.62
74.12
71.30
67.04
62.16
57.42
53.28
49.72
46.22
42.03
36.53
29.47
21.03
11.69
1.99
-7.65
-17.00
-25.96
-34.44
-42.28
-49.25
-55.10
-59.80
-63.79
-68.06
-73.90
-82.28
-93.01
-104.15
-112.07
-112.51
-102.04
-79.49
-46.64
-7.64
32.36
68.80
98.78
121.30
136.61
145.43
148.40
146.00
138.80
127.72
114.11
99.49
85.19
72.02
60.14
49.12
38.26
26.90
14.70
1.81
-11.24
-23.59
-34.40
-43.00
-49.11
-52.92
-55.13
-56.97
-59.97
-65.64
-74.67
-86.34
-98.18
-106.42
-107.13
-97.66
-77.76
-49.79
-17.93
13.21
40.02
60.53
74.35
81.90
83.77
80.35
72.01
59.48
44.23
28.30
13.90
2.81
-4.20
-7.48
-8.30
-8.28
-8.88
-10.86
-14.27
-18.57
-23.15
-27.73
-32.64
-38.71
-46.99
-58.38
-73.41
-92.03
-113.51
-136.06
-156.70
-171.37
-175.73
-166.48
-142.73
-106.66
-63.06
-17.92
23.44
57.63
83.41
101.01
111.06
113.99
110.11
100.16
85.87
69.96
55.49
44.85
38.97
37.06
37.12
36.80
34.39
29.33
22.20
14.18
6.42
-0.53
-6.89
-13.49
-21.45
-31.84
-45.43
-62.44
-82.13
-102.46
-120.07
-130.77
-130.72
-117.82
-92.82
-59.33
-22.81
11.25
38.97
58.93
71.80
79.25
82.79
83.17
80.52
74.91
66.96
57.97
49.56
43.08
39.14
37.38
36.75
35.97
34.11
30.81
26.39
21.45
16.54
11.72
6.55
0.31
-7.66
-17.66
-29.62
-43.15
-57.57
-71.64
-83.29
-89.52
-87.04
-73.28
-47.64
-12.19
28.69
69.59
105.63
133.78
153.05
163.97
167.62
164.92
156.55
143.27
126.39
107.84
89.91
74.59
63.15
55.72
51.51
49.13
47.06
44.07
39.48
33.15
25.39
16.71
7.54
-1.86
-11.55
-21.78
-32.87
-45.23
-59.30
-75.42
-93.39
-111.95
-128.41
-138.84
-139.13
-126.51
-100.88
-65.21
-24.79
14.47
47.78
72.55
88.33
96.09
97.16
92.73
83.81
71.59
57.62
43.70
31.47
22.04
15.75
12.25
10.76
10.41
10.42
10.14
9.06
6.82
3.27
-1.47
-6.98
-12.68
-18.05
-22.86
-27.39
-32.37
-38.91
-48.16
-60.72
-76.08
-92.15
-105.38
-111.48
-106.79
-89.75
-61.77
-27.03
8.86
40.64
64.95
80.93
89.59
92.75
91.91
87.79
80.58
70.52
58.42
45.63
33.77
24.15
17.38
13.19
10.75
9.01
7.08
4.50
1.19
-2.64
-6.75
-11.02
-15.55
-20.68
-26.94
-34.84
-44.94
-57.60
-72.84
-90.02
-107.54
-122.68
-131.98
-132.07
-120.83
-98.35
-67.20
-31.78
2.98
33.03
56.13
71.84
80.89
84.26
82.65
76.49
66.41
53.72
40.41
28.72
20.44
16.24
15.46
16.44
17.20
16.16
12.63
6.82
-0.38
-7.95
-15.18
-21.87
-28.34
-35.35
-43.82
-54.65
-68.41
-84.82
-102.39
-118.22
-128.43
-129.29
-118.53
-96.39
-65.82
-31.56
1.44
29.46
50.75
65.26
73.79
77.05
75.40
69.10
58.91
46.34
33.46
22.26
13.97
8.64
5.38
2.78
-0.30
-4.32
-8.95
-13.42
-17.03
-19.56
-21.50
-23.93
-28.14
-35.25
-45.90
-59.99
-76.51
-93.41
-107.73
-116.04
-115.26
-103.73
-81.91
-52.52
-19.75
12.02
39.44
60.82
75.92
85.19
89.09
87.77
81.42
70.72
57.27
43.33
31.19
22.42
17.35
15.01
13.75
11.98
8.84
4.43
-0.42
-4.73
-7.95
-10.32
-12.76
-16.59
-23.15
-33.40
-47.63
-65.17
-84.09
-101.23
-112.68
-114.84
-105.60
-85.34
-56.92
-24.87
6.18
32.74
53.13
67.14
75.20
77.64
74.46
65.79
52.48
36.38
20.09
6.15
-3.79
-9.53
-12.23
-13.73
-15.82
-19.49
-24.74
-30.83
-36.80
-42.01
-46.45
-50.64
-55.42
-61.64
-70.03
-80.98
-94.31
-108.90
-122.43
-131.51
-132.47
-122.59
-101.25
-70.45
-34.28
2.42
35.52
62.59
82.87
96.67
104.52
106.70
103.34
94.95
82.73
68.70
55.22
44.33
37.22
33.81
32.95
32.89
32.01
29.26
24.47
18.17
11.10
3.85
-3.44
-11.03
-19.34
-28.75
-39.60
-52.14
-66.36
-81.64
-96.32
-107.57
-111.92
-106.34
-89.45
-62.32
-28.30
8.04
42.26
71.25
93.53
108.89
117.74
120.58
117.99
110.85
100.66
89.30
78.61
69.87
63.52
59.29
56.54
54.69
53.31
51.97
50.05
46.85
41.78
34.72
26.17
17.03
8.23
0.25
-6.98
-14.04
-21.75
-31.08
-42.83
-57.47
-74.56
-92.22
-107.03
-114.71
-111.47
-95.55
-68.18
-33.31
3.71
37.90
66.03
86.95
100.99
109.00
111.59
109.07
101.89
91.07
78.36
65.78
55.02
46.90
41.24
37.13
33.53
29.74
25.66
21.62
18.01
14.84
11.52
7.01
0.24
-9.31
-21.25
-34.26
-46.60
-56.81
-64.33
-69.73
-74.48
-80.43
-89.14
-101.47
-117.17
-134.74
-151.35
-163.26
-166.51
-158.17
-137.39
-105.95
-67.92
-28.46
7.69
37.29
58.95
72.66
79.08
79.04
73.46
63.65
51.53
39.40
29.43
22.93
19.99
19.55
20.00
19.97
18.87
17.08
15.42
14.51
14.27
13.80
11.77
7.11
-0.37
-9.94
-20.20
-29.79
-37.97
-44.86
-51.28
-58.39
-67.25
-78.49
-92.00
-106.55
-119.73
-128.12
-128.16
-117.39
-95.42
-64.37
-28.24
8.34
41.54
69.08
90.20
105.01
113.82
116.86
114.46
107.50
97.54
86.61
76.62
68.77
63.33
59.78
57.30
55.24
53.36
51.71
50.27
48.62
45.96
41.40
34.35
24.91
13.85
2.32
-8.57
-18.18
-26.42
-33.78
-41.12
-49.60
-60.33
-73.97
-90.10
-106.82
-120.68
-127.50
-123.68
-107.58
-80.34
-45.61
-8.38
26.61
56.09
78.62
94.26
103.76
107.87
107.21
102.38
94.31
84.30
73.87
64.34
56.51
50.56
46.22
43.02
40.61
38.77
37.36
36.10
34.53
31.96
27.74
21.50
13.38
4.04
-5.62
-14.79
-23.10
-30.85
-38.96
-48.71
-61.17
-76.55
-93.65
-109.70
-120.82
-123.15
-114.14
-93.56
-63.76
-28.96
6.06
37.28
62.25
80.11
91.12
96.05
95.72
91.03
83.05
73.14
62.76
53.27
45.53
39.86
36.03
33.61
32.07
30.97
29.91
28.49
26.24
22.74
17.73
11.26
3.68
-4.46
-12.66
-20.63
-28.44
-36.48
-45.44
-56.10
-68.97
-83.84
-99.31
-112.64
-120.25
-118.73
-106.10
-82.72
-51.39
-16.52
17.19
46.04
68.02
82.72
90.75
93.14
90.91
85.07
76.62
66.72
56.48
46.81
38.31
31.22
25.54
21.10
17.73
15.22
13.28
11.54
9.53
6.70
2.53
-3.43
-11.35
-21.08
-32.08
-43.51
-54.49
-64.47
-73.54
-82.44
-92.05
-102.58
-112.79
-119.90
-120.28
-110.80
-90.29
-60.15
-24.12
12.93
46.51
73.55
92.72
104.10
108.60
107.44
101.97
93.69
84.09
74.50
65.77
58.11
51.21
44.48
37.48
30.26
23.32
17.41
13.08
10.31
8.42
6.32
2.90
-2.39
-9.37
-17.22
-24.80
-31.22
-36.22
-40.26
-44.44
-50.06
-58.14
-68.76
-80.66
-91.13
-96.49
-93.23
-79.20
-54.57
-21.94
14.34
49.56
79.89
103.11
118.62
126.93
129.04
126.07
119.25
109.94
99.67
89.80
81.32
74.52
69.08
64.35
59.72
54.89
49.91
45.00
40.24
35.41
29.97
23.31
15.09
5.46
-4.98
-15.38
-25.02
-33.54
-41.06
-48.14
-55.72
-64.83
-76.19
-89.64
-103.65
-115.32
-121.04
-117.67
-103.93
-81.10
-52.81
-23.83
1.52
20.61
32.85
39.05
40.53
38.25
32.65
23.95
12.65
-0.21
-13.25
-25.11
-34.93
-42.38
-47.52
-50.43
-51.04
-49.26
-45.24
-39.66
-33.68
-28.51
-24.94
-23.03
-22.21
-21.79
-21.46
-21.64
-23.38
-28.08
-36.89
-50.04
-66.48
-83.65
-97.98
-105.63
-103.77
-91.49
-70.23
-43.35
-14.99
11.22
33.00
49.61
61.46
69.35
74.00
75.85
75.20
72.34
67.69
61.78
55.19
48.61
42.76
38.39
36.17
36.49
39.37
44.30
50.39
56.49
61.33
63.78
62.93
58.28
49.81
37.95
23.38
6.76
-11.47
-30.87
-50.48
-68.32
-81.45
-86.69
-81.88
-67.04
-44.82
-19.80
2.92
19.38
27.66
27.94
21.68
10.74
-3.30
-19.13
-35.18
-49.34
-59.10
-62.46
-59.03
-50.71
-41.27
-34.91
-34.26
-38.91
-45.37
-48.66
-44.74
-32.56
-14.75
3.43
16.36
20.19
13.93
-0.77
-20.73
-42.37
-62.51
-78.57
-88.59
-91.49
-87.54
-78.89
-69.40
-63.52
-64.56
-73.26
-87.35
-102.61
-114.53
-120.27
-119.63
-114.71
-108.47
-103.21
-99.69
-97.12
-93.93
-88.43
-79.62
-67.50
-53.14
-37.89
-22.97
-8.87
4.65
18.25
32.83
48.72
65.36
81.32
95.26
106.61
115.82
124.14
132.64
142.04
152.46
164.36
176.18
185.25
188.88
185.16
174.53
156.34
130.35
97.58
60.17
21.69
-13.25
-41.25
-61.27
-74.53
-83.43
-89.69
-93.61
-94.60
-92.15
-86.49
-78.77
-70.26
-61.68
-52.91
-43.04
-31.37
-18.19
-5.00
6.07
13.03
14.86
12.10
6.90
2.87
4.14
14.00
33.70
61.76
94.43
126.91
155.06
176.52
191.01
199.45
202.83
201.40
194.66
182.12
164.16
142.47
119.57
97.97
79.17
63.19
48.85
34.49
18.95
2.09
-15.11
-31.17
-44.81
-55.57
-63.95
-71.12
-78.45
-87.00
-97.40
-109.73
-123.51
-137.49
-149.55
-156.77
-156.12
-145.48
-124.66
-95.81
-62.90
-30.50
-2.31
19.71
35.36
45.44
50.90
52.27
49.80
43.92
35.68
26.79
19.19
14.39
12.94
14.34
17.29
20.25
21.97
21.85
20.03
17.11
13.81
10.56
7.29
3.45
-1.70
-8.88
-18.50
-30.64
-44.88
-60.14
-74.39
-84.74
-87.94
-81.48
-64.69
-39.30
-9.14
21.13
47.57
68.01
82.21
91.11
95.83
97.04
94.92
89.65
81.89
72.90
64.21
57.09
52.02
48.61
45.73
41.98
36.21
27.83
16.94
4.13
-9.82
-24.31
-38.99
-53.81
-68.80
-83.92
-99.10
-114.32
-129.65
-145.05
-159.76
-171.84
-178.32
-175.87
-162.12
-136.84
-102.27
-62.53
-22.15
15.35
48.32
76.81
101.72
123.77
142.81
157.80
167.35
170.44
167.03
158.25
146.04
132.60
119.65
107.96
97.38
87.20
76.76
65.82
54.67
43.72
33.19
22.88
12.23
0.67
-12.13
-26.25
-41.70
-58.84
-78.18
-99.90
-123.09
-145.20
-162.31
-170.31
-166.44
-150.57
-125.33
-95.08
-64.24
-35.86
-11.17
9.92
27.75
41.96
51.46
54.94
51.79
42.67
29.55
15.07
1.72
-8.97
-16.83
-22.80
-28.40
-34.94
-43.03
-52.41
-62.32
-72.01
-81.24
-90.33
-99.80
-109.95
-120.53
-130.81
-140.02
-147.96
-155.20
-162.86
-171.63
-180.92
-188.40
-190.46
-183.51
-165.53
-137.03
-100.99
-61.97
-24.55
7.78
33.09
50.71
60.73
63.52
59.74
50.50
37.45
22.53
7.42
-6.87
-20.14
-32.63
-44.58
-55.73
-65.36
-72.69
-77.42
-80.25
-82.76
-87.02
-94.75
-106.54
-121.63
-138.06
-153.48
-166.07
-175.11
-181.02
-184.93
-187.90
-190.37
-191.79
-190.65
-184.81
-171.99
-150.32
-118.75
-77.55
-28.40
25.90
82.07
137.28
189.74
238.74
284.14
325.61
362.04
391.71
412.82
424.45
427.31
423.93
418.29
414.68
416.17
423.27
433.39
441.45
441.51
428.92
401.90
362.04
313.32
260.45
207.38
156.70
109.90
68.05
32.26
3.43
-18.29
-33.98
-45.85
-56.54
-68.22
-81.76
-96.41
-109.90
-119.09
-120.90
-113.27
-96.03
-71.14
-42.08
-12.75
13.94
36.83
56.34
73.58
89.24
102.95
113.48
119.56
120.69
117.47
111.25
103.46
94.96
86.02
76.51
66.47
56.35
46.95
39.05
33.08
28.99
26.32
24.56
23.24
22.15
21.18
20.21
19.01
17.30
14.74
10.93
5.44
-2.29
-12.79
-26.19
-41.80
-57.81
-71.62
-80.55
-82.86
-78.48
-69.07
-57.38
-46.20
-37.44
-31.77
-28.86
-27.98
-28.56
-30.38
-33.43
-37.63
-42.59
-47.73
-52.37
-56.01
-58.35
-59.37
-59.30
-58.57
-57.75
-57.46
-58.21
-60.28
-63.63
-68.01
-73.13
-78.74
-84.69
-90.85
-97.10
-103.38
-109.83
-116.82
-124.79
-133.76
-142.79
-149.94
-152.63
-148.65
-137.16
-119.21
-97.47
-75.23
-55.26
-39.08
-26.82
-17.82
-11.29
-6.81
-4.34
-3.93
-5.44
-8.34
-11.86
-15.18
-17.60
-18.67
-18.28
-16.62
-14.18
-11.66
-9.81
-9.18
-9.99
-12.14
-15.28
-19.09
-23.26
-27.58
-31.87
-36.05
-40.30
-45.20
-51.52
-59.69
-69.10
-77.83
-82.94
-81.54
-72.06
-55.03
-33.05
-9.69
11.83
29.61
43.20
53.02
59.49
62.57
61.86
57.16
49.00
38.76
28.36
19.52
13.28
9.68
8.01
7.19
6.22
4.47
1.68
-2.07
-6.54
-11.45
-16.55
-21.81
-27.33
-33.40
-40.42
-48.87
-59.19
-71.54
-85.57
-100.00
-112.58
-120.35
-120.47
-111.19
-92.69
-67.26
-38.72
-11.15
12.34
30.27
42.73
50.60
54.71
55.40
52.64
46.49
37.69
27.67
18.21
10.79
6.07
3.69
2.61
1.64
-0.00
-2.55
-5.82
-9.51
-13.49
-17.90
-22.98
-28.96
-35.90
-43.86
-53.03
-63.82
-76.59
-91.12
-106.04
-118.72
-125.73
-123.95
-111.79
-89.91
-61.19
-29.67
0.72
27.20
48.57
64.75
76.21
83.27
86.08
84.77
79.75
71.96
62.74
53.56
45.70
39.97
36.55
34.95
34.35
33.72
32.32
29.78
26.14
21.56
16.22
10.04
2.84
-5.47
-14.87
-25.29
-36.88
-50.01
-64.92
-81.07
-96.54
-108.07
-111.87
-104.93
-86.31
-57.57
-22.24
15.33
51.25
82.78
108.45
127.70
140.54
147.33
148.83
146.12
140.47
133.01
124.53
115.50
106.28
97.24
88.85
81.40
74.90
68.86
62.50
55.05
46.08
35.65
24.24
12.53
1.04
-10.03
-20.82
-31.75
-43.48
-56.78
-72.30
-90.03
-108.72
-125.56
-136.56
-137.64
-126.23
-102.40
-69.13
-31.39
5.48
37.37
62.15
79.52
90.12
94.76
94.05
88.51
78.98
66.80
53.67
41.32
31.05
23.59
18.97
16.75
16.17
16.37
16.51
15.98
14.40
11.76
8.26
4.28
0.06
-4.38
-9.27
-15.01
-22.12
-31.23
-42.84
-57.18
-73.64
-90.41
-104.37
-111.64
-108.75
-93.97
-68.16
-34.72
1.49
35.63
64.27
85.83
100.35
108.63
111.57
109.95
104.51
96.26
86.51
76.64
67.75
60.40
54.59
50.01
46.37
43.44
41.11
39.09
36.87
33.76
29.20
22.93
15.21
6.64
-2.09
-10.49
-18.47
-26.33
-34.73
-44.54
-56.53
-70.90
-86.73
-101.65
-112.10
-114.27
-105.50
-85.44
-56.47
-22.97
10.17
39.06
61.59
77.40
87.11
91.52
91.22
86.67
78.57
67.98
56.29
44.80
34.51
25.93
19.28
14.63
11.97
11.23
12.06
13.89
16.00
17.70
18.46
17.98
16.11
12.85
8.31
2.66
-3.85
-11.18
-19.60
-29.68
-41.89
-55.93
-70.19
-81.66
-86.66
-82.15
-67.11
-43.11
-13.88
15.90
42.22
62.69
76.64
84.58
87.31
85.49
79.74
70.86
60.16
49.23
39.54
32.00
26.77
23.50
21.62
20.70
20.38
20.33
20.03
18.84
16.15
11.75
5.85
-0.96
-7.96
-14.63
-20.77
-26.58
-32.57
-39.44
-47.91
-58.33
-70.32
-82.30
-91.61
-94.99
-89.74
-74.81
-51.45
-23.01
6.13
31.94
51.85
65.11
72.29
74.51
72.74
67.57
59.46
49.13
37.73
26.71
17.42
10.74
6.81
5.10
4.63
4.29
3.14
0.57
-3.50
-8.76
-14.66
-20.67
-26.53
-32.37
-38.59
-45.65
-53.95
-63.66
-74.58
-86.05
-96.67
-104.28
-106.32
-100.51
-85.79
-62.97
-34.75
-4.92
22.65
45.17
61.28
70.97
74.94
74.05
69.06
60.71
50.03
38.39
27.43
18.61
12.80
9.95
9.21
9.16
8.41
6.04
1.88
-3.54
-9.29
-14.43
-18.39
-21.21
-23.47
-26.12
-30.23
-36.75
-46.15
-58.24
-71.82
-84.76
-94.23
-97.42
-92.37
-78.70
-57.87
-32.69
-6.54
17.63
37.82
53.08
63.18
68.17
68.26
63.81
55.59
44.89
33.36
22.73
14.39
9.06
6.67
6.37
6.91
6.99
5.67
2.68
-1.60
-6.45
-11.23
-15.69
-20.14
-25.24
-31.68
-40.00
-50.44
-62.84
-76.44
-89.65
-99.96
-104.29
-100.01
-85.90
-63.00
-34.47
-4.64
22.38
43.90
59.02
68.25
72.62
72.97
69.75
63.27
54.14
43.50
32.89
23.79
17.19
13.27
11.45
10.73
10.08
8.81
6.72
4.03
1.13
-1.63
-4.16
-6.66
-9.65
-13.79
-19.79
-28.24
-39.43
-53.01
-67.66
-81.00
-89.89
-91.24
-82.98
-65.02
-39.44
-10.02
18.93
43.83
62.61
74.93
81.59
83.76
82.37
77.92
70.85
61.83
52.04
42.97
35.95
31.65
29.82
29.45
29.19
27.95
25.25
21.24
16.43
11.33
6.18
0.87
-4.86
-11.34
-18.84
-27.67
-38.11
-50.37
-64.09
-77.98
-89.70
-96.23
-94.75
-83.78
-63.89
-37.67
-8.98
18.30
41.27
58.43
69.53
75.01
75.50
71.63
64.20
54.32
43.52
33.42
25.46
20.38
18.10
17.76
18.07
17.76
15.98
12.54
7.86
2.65
-2.42
-7.09
-11.60
-16.53
-22.52
-30.12
-39.57
-50.92
-63.92
-77.78
-90.88
-100.75
-104.40
-99.32
-84.45
-60.91
-31.84
-1.47
26.33
49.02
65.77
76.96
83.34
85.41
83.30
77.22
67.95
56.98
46.22
37.35
31.26
27.85
26.25
25.29
23.89
21.37
17.49
12.35
6.28
-0.31
-7.13
-14.04
-21.17
-28.87
-37.54
-47.60
-59.25
-72.37
-86.20
-99.18
-108.89
-112.41
-107.16
-91.91
-67.52
-36.93
-4.40
25.87
50.88
69.40
81.71
88.79
91.53
90.38
85.58
77.59
67.43
56.63
46.86
39.34
34.53
32.03
30.83
29.80
28.03
25.10
21.08
16.30
11.10
5.61
-0.28
-6.88
-14.41
-22.97
-32.55
-43.20
-55.13
-68.46
-82.72
-96.28
-106.26
-109.19
-102.26
-84.55
-57.73
-25.63
7.00
36.02
58.94
75.15
85.26
90.27
90.95
87.75
81.10
71.82
61.16
50.62
41.56
34.81
30.47
27.93
26.21
24.30
21.54
17.72
13.08
8.05
2.91
-2.26
-7.69
-13.64
-20.40
-28.10
-36.93
-47.11
-58.93
-72.43
-86.96
-100.77
-111.09
-114.74
-109.14
-93.31
-68.48
-37.81
-5.54
24.31
48.92
67.05
78.82
85.06
86.74
84.71
79.65
72.33
63.68
54.73
46.43
39.48
34.18
30.39
27.68
25.40
22.83
19.29
14.28
7.55
-0.78
-10.36
-20.60
-30.83
-40.42
-48.97
-56.44
-63.22
-70.17
-78.35
-88.61
-100.92
-113.86
-124.57
-129.39
-125.01
-109.75
-84.38
-51.96
-16.86
16.69
45.74
69.02
86.60
99.07
106.85
110.04
108.74
103.45
95.38
86.22
77.60
70.52
65.07
60.61
56.21
51.27
45.80
40.35
35.64
31.97
29.02
25.79
21.07
13.99
4.49
-6.60
-17.92
-28.19
-36.79
-43.97
-50.67
-58.07
-67.12
-78.28
-91.39
-105.52
-118.84
-128.64
-131.73
-125.42
-108.58
-82.35
-50.04
-16.06
15.51
42.08
62.81
78.05
88.45
94.34
95.72
92.82
86.52
78.44
70.46
64.03
59.72
57.13
55.38
53.67
51.72
49.75
48.24
47.44
47.02
46.19
43.93
39.54
32.93
24.69
15.79
7.13
-0.76
-7.89
-14.75
-22.11
-30.85
-41.67
-54.90
-70.05
-85.56
-98.74
-106.28
-105.14
-93.67
-72.32
-43.64
-11.56
19.80
47.12
68.42
82.98
90.86
92.56
88.69
80.09
67.92
53.65
38.85
24.92
12.75
2.64
-5.63
-12.47
-18.21
-22.94
-26.55
-28.98
-30.50
-31.82
-33.93
-37.69
-43.46
-50.84
-58.81
-66.21
-72.17
-76.52
-79.84
-83.28
-88.12
-95.31
-104.94
-115.87
-125.70
-131.13
-128.89
-116.77
-94.57
-64.31
-29.75
4.74
35.40
59.93
77.62
88.91
94.68
95.80
93.00
87.06
79.03
70.22
61.98
55.25
50.35
46.96
44.41
42.11
39.73
37.24
34.70
31.94
28.51
23.84
17.51
9.55
0.51
-8.78
-17.61
-25.67
-33.28
-41.21
-50.42
-61.62
-74.96
-89.61
-103.64
-114.22
-118.20
-113.06
-97.78
-73.42
-42.91
-10.28
20.55
46.71
66.77
80.56
88.59
91.52
90.05
84.91
77.09
67.79
58.31
49.66
42.48
36.97
32.96
30.17
28.26
26.88
25.58
23.86
21.11
16.89
11.00
3.56
-4.93
-13.81
-22.47
-30.56
-38.16
-45.84
-54.48
-65.07
-78.18
-93.32
-108.60
-120.78
-125.92
-120.74
-103.91
-76.76
-43.13
-8.06
23.79
49.45
67.97
79.95
86.46
88.35
86.11
80.17
71.39
61.16
51.05
42.26
35.30
29.96
25.66
21.88
18.26
14.62
10.76
6.42
1.28
-4.80
-11.77
-19.39
-27.41
-35.64
-44.07
-52.81
-62.12
-72.39
-84.14
-97.78
-113.11
-128.74
-141.88
-148.81
-145.88
-131.01
-104.63
-69.79
-31.32
5.79
37.78
62.85
80.97
93.09
100.18
102.93
101.72
97.08
89.88
81.36
72.67
64.75
58.11
52.92
49.24
47.02
46.01
45.66
45.21
43.86
41.08
36.81
31.34
25.14
18.67
12.21
5.91
-0.22
-6.47
-13.47
-22.11
-33.08
-46.13
-59.48
-69.96
-73.76
-67.86
-51.32
-25.80
4.88
36.04
63.55
84.77
98.81
106.03
107.39
103.95
96.78
86.99
75.91
64.92
55.28
47.81
42.74
39.79
38.32
37.53
36.56
34.58
30.76
24.54
15.70
4.53
-8.35
-22.10
-36.00
-49.61
-62.74
-75.42
-87.81
-100.32
-113.62
-128.35
-144.47
-160.72
-174.25
-181.19
-177.98
-162.81
-136.64
-103.00
-66.78
-32.65
-3.74
18.72
34.94
45.70
51.79
53.80
52.34
48.30
42.84
37.17
32.22
28.46
25.95
24.54
24.09
24.49
25.55
26.87
27.74
27.35
24.98
20.31
13.53
5.27
-3.63
-12.33
-20.33
-27.57
-34.54
-42.25
-51.93
-64.43
-79.47
-95.00
-107.38
-112.25
-106.06
-87.53
-58.31
-22.46
14.92
49.27
77.64
98.85
113.03
120.87
123.23
121.00
115.25
107.31
98.50
89.94
82.19
75.34
69.12
63.29
57.76
52.73
48.38
44.66
41.14
36.97
31.21
23.26
13.13
1.44
-10.75
-22.46
-33.17
-43.04
-52.84
-63.74
-76.88
-92.88
-111.32
-130.30
-146.49
-155.69
-154.09
-139.53
-112.60
-76.64
-36.81
1.51
34.16
59.03
75.90
85.68
89.63
88.82
84.07
76.29
66.63
56.42
46.91
38.90
32.64
27.88
24.17
21.15
18.59
16.34
14.05
11.10
6.66
0.09
-8.80
-19.55
-31.20
-42.69
-53.29
-62.93
-72.15
-82.03
-93.76
-108.21
-125.32
-143.66
-160.20
-170.82
-171.38
-159.18
-134.16
-99.14
-59.13
-19.73
14.43
40.67
58.23
67.59
69.68
65.44
55.97
42.88
28.48
15.38
5.95
1.54
2.26
7.11
14.59
23.21
31.73
39.13
44.45
46.71
45.14
39.50
30.38
19.06
7.23
-3.67
-12.85
-20.41
-27.33
-35.10
-45.29
-58.79
-75.17
-92.26
-106.24
-112.58
-107.42
-89.07
-58.76
-20.49
20.24
58.01
88.90
111.18
124.96
131.46
132.11
128.09
120.27
109.53
96.97
84.00
72.10
62.46
55.70
51.69
49.67
48.54
47.17
44.72
40.75
35.31
28.73
21.42
13.75
5.85
-2.35
-11.06
-20.60
-31.42
-44.02
-58.76
-75.34
-92.26
-106.59
-114.35
-111.74
-96.56
-69.33
-33.43
5.94
43.41
74.99
98.81
114.88
124.14
127.55
125.62
118.60
107.06
92.42
76.90
63.10
53.05
47.53
45.76
45.87
45.65
43.48
38.90
32.42
25.09
17.77
10.82
4.01
-3.15
-11.21
-20.69
-32.14
-46.13
-62.91
-81.71
-100.29
-114.94
-121.39
-116.28
-98.50
-69.83
-34.53
2.13
35.44
62.40
81.99
94.60
101.15
102.39
98.74
90.57
78.65
64.35
49.59
36.36
26.22
19.80
16.69
15.70
15.29
14.16
11.62
7.67
2.72
-2.72
-8.46
-14.63
-21.68
-30.00
-39.91
-51.66
-65.44
-81.32
-98.62
-115.49
-128.58
-133.70
-127.09
-107.01
-74.74
-34.45
8.10
47.41
79.72
103.58
119.33
128.05
130.69
127.82
119.90
107.83
93.23
78.23
64.99
54.95
48.48
44.83
42.56
40.14
36.51
31.37
25.07
18.27
11.60
5.28
-0.91
-7.54
-15.33
-24.98
-37.07
-51.89
-69.19
-87.79
-105.26
-118.12
-122.43
-115.04
-94.79
-63.19
-24.23
16.81
54.84
86.30
109.61
124.82
132.81
134.40
130.14
120.39
105.88
88.03
68.95
50.98
36.00
24.81
16.92
10.89
4.98
-2.09
-10.65
-20.18
-29.71
-38.47
-46.30
-53.70
-61.54
-70.68
-81.71
-94.94
-110.51
-128.16
-146.80
-164.08
-176.40
-179.66
-170.74
-148.85
-116.23
-77.60
-38.57
-3.92
23.63
43.46
56.32
63.27
65.04
62.07
54.97
44.97
33.95
24.09
17.25
14.37
15.25
18.59
22.49
25.08
25.13
22.39
17.57
11.80
6.14
1.00
-3.94
-9.49
-16.59
-25.95
-37.94
-52.52
-69.00
-85.70
-99.77
-107.51
-105.35
-91.24
-65.63
-31.72
5.49
40.85
70.53
92.77
107.59
115.90
118.60
116.12
108.78
97.25
82.95
67.94
54.41
43.99
37.27
33.72
32.00
30.57
28.15
24.12
18.53
12.00
5.27
-1.07
-6.84
-12.31
-18.04
-24.73
-33.03
-43.46
-56.20
-70.84
-85.97
-98.90
-105.99
-103.52
-89.04
-62.41
-26.21
15.02
56.22
93.28
123.79
146.94
162.74
171.32
172.59
166.60
153.97
136.26
115.81
95.17
76.48
61.05
49.28
40.78
34.67
29.89
25.39
20.28
14.03
6.47
-2.17
-11.40
-20.65
-29.45
-37.58
-45.20
-52.83
-61.42
-72.08
-85.51
-101.30
-117.36
-130.01
-134.79
-128.09
-108.60
-78.07
-40.93
-2.84
31.07
57.55
75.47
85.41
88.65
86.46
79.90
69.89
57.60
44.42
31.85
21.22
13.32
8.37
5.92
5.15
5.01
4.48
2.82
-0.35
-4.94
-10.59
-16.90
-23.60
-30.70
-38.47
-47.22
-57.25
-68.81
-82.08
-96.96
-112.61
-127.07
-137.14
-139.18
-130.26
-109.55
-79.00
-42.93
-6.58
25.50
50.64
68.18
78.77
83.49
83.15
78.30
69.62
58.26
45.89
34.36
25.22
19.27
16.39
15.69
15.86
15.58
13.89
10.34
5.03
-1.58
-8.92
-16.47
-23.90
-31.18
-38.46
-46.11
-54.68
-64.87
-77.23
-91.81
-107.55
-121.99
-131.52
-132.28
-121.55
-98.99
-67.03
-30.24
6.06
37.48
61.53
77.69
86.79
90.03
88.43
82.80
74.04
63.38
52.36
42.48
34.76
29.50
26.35
24.57
23.33
21.93
19.80
16.56
12.01
6.21
-0.52
-7.61
-14.47
-20.70
-26.28
-31.67
-37.71
-45.51
-56.12
-70.04
-86.66
-103.80
-117.80
-124.30
-119.71
-102.63
-74.64
-40.01
-4.25
27.64
52.58
69.81
80.27
85.52
86.78
84.64
79.33
71.26
61.33
50.83
41.12
33.26
27.69
24.30
22.57
21.84
21.33
20.28
18.04
14.13
8.42
1.17
-7.06
-15.63
-23.96
-31.82
-39.32
-47.01
-55.77
-66.58
-79.92
-95.11
-109.80
-120.21
-122.15
-112.57
-90.96
-59.79
-23.81
11.52
41.78
64.53
79.41
87.27
89.31
86.48
79.47
69.07
56.54
43.56
32.04
23.50
18.65
17.18
17.93
19.32
19.89
18.76
15.77
11.39
6.29
1.05
-4.14
-9.42
-15.17
-21.74
-29.47
-38.71
-49.86
-63.27
-78.70
-94.78
-108.72
-116.75
-115.23
-102.09
-77.98
-46.19
-11.69
20.62
47.31
67.04
80.10
87.49
90.02
88.03
81.77
71.86
59.68
47.15
36.19
28.14
23.34
21.13
20.24
19.27
17.25
13.82
9.23
4.06
-1.14
-6.19
-11.37
-17.33
-24.81
-34.40
-46.43
-60.83
-76.93
-93.25
-107.38
-116.21
-116.60
-106.52
-85.89
-57.00
-23.91
8.78
37.28
59.47
74.92
84.26
88.33
87.70
82.64
73.66
61.87
49.10
37.44
28.61
23.34
21.12
20.55
19.93
18.00
14.34
9.40
3.99
-1.18
-5.91
-10.62
-16.05
-22.93
-31.74
-42.73
-55.90
-70.85
-86.41
-100.36
-109.53
-110.57
-101.11
-80.91
-52.17
-18.95
14.11
43.21
66.20
82.55
92.72
97.36
96.97
91.91
82.81
70.83
57.70
45.29
35.23
28.39
24.75
23.42
23.03
22.16
19.76
15.49
9.64
2.94
-3.88
-10.37
-16.62
-23.11
-30.47
-39.27
-49.92
-62.64
-77.31
-93.07
-107.96
-118.87
-122.11
-114.68
-95.57
-66.56
-31.87
3.18
33.86
57.37
73.08
81.92
85.25
84.10
78.91
70.05
58.33
45.31
33.00
23.33
17.41
15.21
15.63
17.03
17.85
17.11
14.58
10.60
5.72
0.34
-5.41
-11.63
-18.50
-26.19
-34.86
-44.78
-56.32
-69.73
-84.61
-99.37
-111.11
-116.13
-111.15
-94.63
-67.63
-33.71
2.24
35.51
62.90
83.21
96.84
104.91
108.47
108.15
104.31
97.50
88.65
79.15
70.45
63.68
59.33
57.13
56.13
55.12
52.97
48.94
42.90
35.19
26.43
17.24
8.05
-1.01
-9.98
-19.05
-28.51
-38.83
-50.68
-64.67
-80.85
-98.05
-113.56
-123.59
-124.37
-113.59
-91.46
-60.81
-26.13
7.81
37.39
60.64
77.06
86.97
90.90
89.42
83.28
73.65
62.10
50.34
39.87
31.70
26.24
23.36
22.53
23.00
23.88
24.30
23.51
21.03
16.73
10.79
3.61
-4.31
-12.53
-20.79
-29.05
-37.50
-46.69
-57.37
-70.27
-85.57
-102.27
-117.80
-128.37
-129.94
-119.83
-97.85
-66.69
-31.12
3.70
33.63
56.61
72.38
81.79
85.85
85.34
80.86
73.22
63.66
53.66
44.72
37.79
33.25
30.88
30.06
30.09
30.23
29.86
28.45
25.65
21.31
15.51
8.55
0.82
-7.24
-15.27
-23.07
-30.66
-38.39
-47.04
-57.63
-70.92
-86.76
-103.40
-117.55
-125.05
-122.31
-107.77
-82.65
-50.75
-17.20
13.21
37.22
53.53
62.47
65.17
62.94
56.93
48.19
37.77
26.80
16.33
7.19
-0.04
-5.06
-7.80
-8.43
-7.47
-5.80
-4.46
-4.45
-6.30
-9.99
-15.06
-20.89
-27.07
-33.58
-40.68
-48.79
-58.32
-69.72
-83.27
-98.84
-115.35
-130.40
-140.45
-141.71
-131.55
-109.70
-78.71
-43.23
-8.42
21.65
44.81
60.80
70.35
74.33
73.26
67.54
57.90
45.78
33.17
22.15
14.20
9.79
8.33
8.53
8.95
8.49
6.65
3.55
-0.30
-4.34
-8.24
-12.02
-16.05
-20.81
-26.80
-34.50
-44.37
-56.71
-71.29
-86.81
-100.66
-109.17
-108.65
-96.74
-73.54
-41.80
-6.07
28.68
58.62
81.78
97.92
107.74
112.09
111.46
106.22
96.94
84.85
71.72
59.52
49.81
43.25
39.46
37.30
35.45
32.81
28.97
24.07
18.60
13.00
7.46
1.89
-4.10
-10.94
-19.14
-29.27
-41.86
-57.24
-74.98
-93.43
-109.50
-119.21
-118.78
-106.14
-81.87
-49.22
-13.21
21.13
50.07
71.94
86.79
95.49
98.84
97.16
90.61
79.71
65.78
50.84
37.16
26.53
19.70
16.23
14.77
13.69
11.71
8.27
3.67
-1.41
-6.31
-10.86
-15.52
-21.07
-28.33
-37.87
-49.97
-64.71
-81.81
-100.27
-117.94
-131.37
-136.53
-130.07
-110.84
-80.65
-43.88
-6.03
28.11
55.73
76.18
90.16
98.56
101.73
99.55
92.02
79.92
65.09
49.99
36.95
27.41
21.55
18.43
16.60
14.67
11.81
7.86
3.17
-1.83
-6.83
-11.89
-17.35
-23.81
-31.83
-41.99
-54.65
-69.89
-87.08
-104.55
-119.48
-128.24
-127.42
-114.95
-91.06
-58.45
-21.62
14.57
46.19
71.11
88.96
100.45
106.50
107.71
104.29
96.54
85.22
71.85
58.38
46.80
38.40
33.46
31.23
30.29
29.16
26.87
23.12
18.26
12.78
7.08
1.14
-5.30
-12.64
-21.18
-31.16
-42.90
-56.77
-72.87
-90.40
-107.12
-119.33
-122.83
-114.30
-92.90
-60.81
-22.71
15.82
50.06
77.24
96.70
109.09
115.38
116.33
112.44
104.41
93.48
81.42
70.10
60.92
54.40
50.20
47.38
44.89
42.02
38.52
34.55
30.43
26.41
22.45
18.26
13.42
7.58
0.55
-7.78
-17.57
-29.20
-43.10
-59.23
-76.43
-91.99
-102.10
-102.85
-91.77
-69.01
-37.47
-1.95
32.43
61.76
84.07
99.15
107.82
111.04
109.57
104.05
95.28
84.46
72.97
62.15
52.91
45.71
40.57
37.23
35.28
34.11
32.98
31.03
27.66
22.61
16.15
8.75
0.90
-7.24
-15.81
-25.15
-35.64
-47.62
-61.27
-76.48
-92.41
-107.10
-117.47
-119.90
-111.51
-91.43
-61.55
-26.12
9.52
40.66
64.45
80.21
88.85
91.83
90.39
85.28
77.05
66.41
54.52
42.80
32.57
24.70
19.37
16.20
14.48
13.43
12.39
10.80
8.20
4.26
-1.08
-7.61
-14.81
-22.10
-29.10
-35.83
-42.76
-50.77
-60.79
-73.43
-88.43
-104.28
-118.04
-125.93
-124.28
-110.89
-86.02
-52.60
-15.49
20.09
49.95
71.88
85.61
92.17
92.98
89.34
82.27
72.75
61.93
51.12
41.55
34.08
29.05
26.20
24.88
24.28
23.62
22.25
19.72
15.80
10.57
4.30
-2.57
-9.62
-16.61
-23.60
-30.94
-39.16
-48.88
-60.62
-74.56
-90.12
-105.59
-118.07
-123.96
-119.99
-104.41
-77.96
-43.81
-6.81
27.97
56.71
77.49
90.23
96.02
96.28
92.24
84.94
75.33
64.58
53.95
44.61
37.31
32.21
28.95
26.83
25.18
23.47
21.39
18.71
15.21
10.65
4.92
-1.92
-9.58
-17.69
-25.88
-34.02
-42.27
-51.22
-61.70
-74.51
-89.79
-106.47
-121.86
-132.04
-132.92
-121.76
-98.41
-65.70
-28.64
7.24
37.60
60.37
75.56
84.45
88.47
88.47
84.81
77.78
68.13
57.23
46.74
38.01
31.71
27.72
25.36
23.90
22.78
21.76
20.69
19.37
17.39
14.30
9.71
3.46
-4.38
-13.52
-23.69
-34.72
-46.68
-59.77
-74.00
-88.68
-102.08
-111.37
-113.32
-105.37
-86.80
-59.30
-26.63
6.50
35.86
58.81
74.50
83.43
86.60
84.87
78.86
69.19
56.92
43.60
31.11
21.12
14.60
11.48
10.72
10.78
10.18
8.02
4.19
-0.79
-6.20
-11.52
-16.64
-21.93
-27.85
-34.81
-43.12
-53.03
-64.83
-78.53
-93.38
-107.39
-117.31
-119.43
-110.93
-91.15
-62.14
-28.11
5.92
35.81
59.18
75.52
85.42
89.67
88.79
83.11
73.28
60.61
47.13
35.02
26.00
20.76
18.85
19.01
19.66
19.54
17.92
14.78
10.55
5.76
0.80
-4.29
-9.73
-15.94
-23.34
-32.40
-43.55
-57.13
-73.01
-90.02
-105.69
-116.39
-118.25
-108.55
-86.91
-55.75
-19.67
16.02
46.97
70.70
86.80
96.05
99.64
98.40
92.89
83.73
71.98
59.26
47.45
38.04
31.76
28.27
26.52
25.19
23.23
20.14
15.98
11.15
6.03
0.84
-4.51
-10.30
-16.88
-24.67
-34.09
-45.58
-59.41
-75.35
-92.13
-107.23
-117.18
-118.38
-108.37
-86.87
-56.11
-20.32
15.52
47.14
71.90
89.00
98.96
102.82
101.52
95.82
86.48
74.62
61.79
49.71
39.81
32.88
28.82
26.79
25.58
24.00
21.28
17.21
12.02
6.20
0.19
-5.89
-12.34
-19.65
-28.39
-38.94
-51.43
-65.86
-81.87
-98.50
-113.82
-124.88
-128.25
-121.21
-102.91
-75.03
-41.44
-6.94
24.23
49.40
67.69
79.39
85.15
85.45
80.67
71.43
58.99
45.25
32.36
22.17
15.77
13.21
13.66
15.69
17.74
18.52
17.30
13.97
8.97
3.02
-3.26
-9.53
-15.83
-22.52
-30.18
-39.53
-51.22
-65.60
-82.14
-99.02
-113.07
-120.29
-117.06
-101.55
-74.63
-39.80
-2.13
33.27
62.71
84.46
98.50
105.73
107.20
103.83
96.52
86.39
74.93
63.78
54.29
47.25
42.68
39.97
38.18
36.33
33.64
29.66
24.32
17.91
10.96
3.95
-2.94
-9.92
-17.55
-26.48
-37.19
-49.94
-64.80
-81.53
-99.27
-116.14
-129.08
-134.39
-128.77
-110.75
-81.52
-44.86
-5.98
30.02
59.54
80.98
94.38
100.66
100.96
96.38
88.08
77.44
66.06
55.43
46.65
40.10
35.58
32.55
30.47
28.98
27.84
26.67
24.88
21.69
16.47
9.07
-0.07
-10.07
-19.99
-29.25
-37.83
-46.25
-55.35
-66.13
-79.40
-95.33
-112.92
-129.62
-141.51
-144.27
-134.63
-111.81
-78.04
-38.09
2.36
38.35
66.91
87.21
99.90
106.14
106.96
103.07
95.23
84.58
72.72
61.39
51.99
45.22
41.00
38.72
37.59
36.92
36.26
35.20
33.33
30.17
25.37
18.83
10.88
2.15
-6.71
-15.23
-23.31
-31.35
-40.19
-50.92
-64.46
-80.86
-98.64
-114.54
-124.13
-123.09
-108.94
-82.20
-46.49
-7.39
29.41
59.78
81.88
95.91
103.03
104.45
101.01
93.31
82.27
69.32
56.30
44.97
36.47
31.06
28.27
27.18
26.80
26.30
25.12
22.92
19.49
14.84
9.06
2.34
-5.12
-13.19
-21.80
-30.98
-40.89
-51.95
-64.72
-79.53
-95.85
-111.72
-123.74
-127.87
-120.90
-101.87
-72.79
-38.07
-3.05
27.74
51.79
68.61
78.96
83.84
83.81
79.09
70.10
57.89
44.29
31.45
21.27
14.79
12.00
11.98
13.29
14.49
14.54
13.00
9.96
5.77
0.81
-4.71
-10.80
-17.54
-25.04
-33.42
-42.93
-53.94
-66.70
-80.82
-94.75
-105.70
-110.17
-105.08
-89.02
-62.97
-30.23
4.61
37.02
63.70
83.02
94.83
99.81
98.77
92.46
81.75
67.92
52.85
38.86
28.08
21.85
20.22
21.91
24.82
26.78
26.29
22.92
17.20
10.20
2.95
-3.91
-10.26
-16.38
-22.68
-29.59
-37.58
-47.20
-58.91
-72.63
-87.14
-99.85
-107.16
-105.54
-92.95
-69.81
-39.11
-5.47
26.41
53.01
72.67
85.28
91.71
92.98
90.03
83.75
75.10
65.23
55.38
46.69
40.01
35.73
33.69
33.18
33.11
32.34
30.06
26.06
20.74
14.80
8.83
2.97
-3.13
-10.07
-18.42
-28.55
-40.59
-54.42
-69.43
-84.19
-96.21
-102.34
-99.65
-86.64
-64.05
-34.89
-3.57
25.61
49.54
66.85
77.59
82.45
82.19
77.38
68.66
57.03
43.96
31.16
20.14
11.87
6.52
3.62
2.18
1.16
-0.29
-2.56
-5.61
-9.11
-12.77
-16.55
-20.81
-26.13
-33.17
-42.35
-53.78
-67.02
-80.92
-93.61
-102.54
-105.00
-98.88
-83.50
-60.07
-31.51
-1.58
26.21
49.47
67.14
79.10
85.59
86.80
82.94
74.51
62.73
49.50
37.08
27.43
21.60
19.43
19.78
21.04
21.89
21.75
20.87
19.93
19.46
19.36
18.75
16.39
11.11
2.27
-10.13
-25.50
-42.75
-60.19
-75.43
-85.60
-87.97
-80.92
-64.72
-41.74
-15.68
9.56
31.02
47.26
57.98
63.43
63.83
59.25
50.05
37.30
22.91
9.20
-1.74
-8.80
-12.04
-12.57
-11.99
-11.76
-12.79
-15.25
-18.73
-22.53
-26.11
-29.31
-32.45
-36.29
-41.70
-49.50
-60.06
-73.05
-87.16
-100.06
-108.73
-110.22
-102.59
-85.70
-61.42
-33.12
-4.58
21.04
41.84
57.11
66.85
71.25
70.47
64.88
55.32
43.34
30.97
20.17
12.32
7.79
5.93
5.40
4.67
2.67
-0.94
-5.68
-10.66
-15.01
-18.36
-21.04
-23.91
-28.08
-34.54
-43.83
-55.87
-69.72
-83.51
-94.49
-99.55
-96.15
-83.18
-61.65
-34.50
-5.68
21.03
42.99
59.12
69.48
74.65
75.20
71.57
64.35
54.63
44.04
34.40
27.16
22.92
21.19
20.77
20.26
18.60
15.45
11.06
6.03
0.88
-4.13
-9.12
-14.44
-20.52
-27.89
-37.08
-48.57
-62.33
-77.41
-91.59
-101.62
-104.07
-96.60
-79.05
-53.73
-24.69
3.70
28.08
46.91
60.15
68.55
72.74
72.90
69.06
61.67
51.92
41.70
32.97
27.17
24.70
24.91
26.44
27.73
27.59
25.44
21.42
16.17
10.47
4.92
-0.35
-5.69
-11.77
-19.29
-28.76
-40.43
-54.17
-69.29
-84.28
-96.61
-103.09
-100.66
-87.65
-64.73
-35.01
-3.17
26.12
49.70
66.50
77.24
83.25
85.51
84.17
78.97
70.02
58.37
45.99
35.15
27.58
23.80
23.03
23.67
24.03
22.94
20.06
15.73
10.63
5.30
0.02
-5.29
-10.88
-17.06
-24.16
-32.56
-42.69
-54.84
-68.74
-83.13
-95.60
-102.90
-101.83
-90.42
-68.91
-39.87
-7.59
23.27
49.03
67.87
79.77
85.93
87.75
86.28
82.08
75.44
66.86
57.20
47.64
39.34
33.11
29.20
27.27
26.65
26.48
25.96
24.44
21.52
17.07
11.23
4.28
-3.36
-11.31
-19.27
-27.09
-34.87
-43.06
-52.35
-63.39
-76.25
-89.74
-101.32
-107.49
-104.95
-91.92
-68.99
-39.13
-6.76
23.65
48.79
67.08
78.48
83.81
84.16
80.53
73.80
65.00
55.32
46.07
38.30
32.57
28.84
26.63
25.28
24.30
23.39
22.37
20.98
18.76
15.21
10.02
3.32
-4.34
-12.16
-19.54
-26.32
-32.85
-39.78
-47.95
-58.02
-70.29
-84.22
-98.18
-109.38
-114.43
-110.37
-95.83
-71.77
-41.41
-9.20
20.52
44.74
62.19
73.07
78.28
78.74
75.23
68.53
59.66
50.04
41.23
34.42
30.15
28.09
27.34
26.86
25.95
24.41
22.39
20.08
17.37
13.91
9.24
3.27
-3.66
-10.76
-17.21
-22.52
-26.78
-30.67
-35.27
-41.78
-51.10
-63.44
-77.85
-92.04
-102.68
-106.25
-100.21
-84.00
-59.37
-29.83
0.48
28.02
50.62
67.42
78.49
84.21
84.98
81.33
74.22
65.09
55.76
47.85
42.30
39.16
37.66
36.73
35.52
33.73
31.60
29.58
27.92
26.40
24.31
20.80
15.21
7.41
-2.12
-12.39
-22.26
-30.79
-37.58
-42.94
-47.82
-53.54
-61.37
-71.93
-84.68
-97.73
-108.05
-112.25
-107.67
-93.45
-70.89
-43.10
-14.02
12.81
35.11
52.02
63.65
70.48
72.86
71.06
65.53
57.20
47.49
37.99
30.00
24.27
20.86
19.33
19.10
19.59
20.37
21.07
21.16
20.04
17.04
11.71
4.15
-4.94
-14.36
-22.81
-29.41
-34.12
-37.75
-41.78
-47.80
-56.96
-69.43
-84.06
-98.42
-109.22
-113.02
-107.29
-91.27
-66.39
-35.95
-4.24
24.81
48.51
65.81
76.97
82.90
84.61
82.97
78.86
73.35
67.69
63.04
60.10
58.87
58.75
58.90
58.71
58.13
57.51
57.39
58.03
59.19
60.15
60.00
57.94
53.58
46.96
38.42
28.33
16.98
4.39
-9.53
-24.93
-41.73
-59.28
-76.14
-90.10
-98.54
-99.13
-90.74
-73.95
-51.05
-25.47
-0.73
20.45
36.63
47.50
53.44
54.93
52.42
46.38
37.58
27.25
16.92
8.04
1.61
-2.09
-3.42
-3.20
-2.36
-1.77
-2.09
-3.77
-7.03
-11.82
-17.82
-24.47
-31.08
-37.16
-42.55
-47.55
-52.89
-59.59
-68.59
-80.44
-94.75
-109.87
-122.88
-130.24
-128.77
-116.87
-95.29
-67.05
-36.54
-8.13
15.07
31.76
42.29
47.86
49.76
48.88
45.78
40.91
34.90
28.53
22.62
17.75
14.15
11.72
10.15
9.11
8.29
7.40
6.12
4.15
1.30
-2.49
-7.08
-12.23
-17.76
-23.63
-30.03
-37.29
-45.83
-56.00
-67.72
-80.18
-91.60
-99.33
-100.48
-92.85
-75.84
-50.91
-21.24
9.11
36.48
58.42
73.98
83.39
87.45
87.08
83.05
76.11
67.17
57.31
47.73
39.49
33.27
29.25
27.06
26.00
25.17
23.74
21.13
17.13
11.84
5.58
-1.27
-8.37
-15.53
-22.66
-29.81
-37.16
-45.19
-54.56
-65.79
-78.69
-91.77
-102.13
-106.09
-100.39
-83.58
-56.77
-23.38
11.86
44.40
70.99
90.19
102.02
107.41
107.52
103.46
96.25
86.85
76.30
65.67
55.97
48.06
42.37
38.82
36.81
35.36
33.49
30.52
26.30
21.11
15.42
9.63
3.85
-2.06
-8.32
-15.07
-22.41
-30.54
-39.87
-50.97
-64.06
-78.37
-91.72
-100.73
-101.82
-92.54
-72.78
-45.02
-13.59
16.80
42.58
62.03
75.13
82.75
85.82
84.94
80.45
72.79
62.83
51.80
41.07
31.85
24.90
20.46
18.25
17.58
17.49
16.99
15.33
12.19
7.73
2.44
-3.19
-8.83
-14.50
-20.47
-27.14
-35.02
-44.66
-56.41
-70.07
-84.40
-96.97
-104.45
-103.63
-92.63
-71.76
-43.70
-12.68
16.93
41.83
60.44
72.71
79.44
81.53
79.61
74.12
65.63
55.08
43.81
33.27
24.74
18.95
16.05
15.54
16.48
17.72
18.16
16.95
13.78
8.85
2.77
-3.73
-10.06
-15.99
-21.61
-27.36
-33.93
-42.20
-52.87
-66.00
-80.37
-93.28
-101.00
-99.87
-87.80
-65.22
-35.21
-2.50
28.06
52.96
70.60
81.11
85.57
85.28
81.31
74.56
65.92
56.38
47.05
38.85
32.41
27.91
25.15
23.59
22.62
21.62
20.08
17.76
14.63
10.89
6.80
2.54
-1.90
-6.75
-12.39
-19.20
-27.55
-37.71
-49.63
-62.70
-75.35
-85.01
-88.49
-82.96
-67.02
-41.51
-9.47
24.68
56.47
82.53
101.13
112.01
115.88
113.74
106.72
95.94
82.69
68.33
54.24
41.56
31.09
23.16
17.63
14.02
11.53
9.26
6.42
2.53
-2.51
-8.49
-15.02
-21.78
-28.68
-35.86
-43.60
-52.30
-62.37
-74.14
-87.59
-102.02
-115.69
-125.88
-129.45
-123.82
-107.95
-83.01
-52.14
-19.62
10.40
34.95
52.67
63.57
68.43
68.21
63.79
56.04
46.10
35.44
25.76
18.51
14.50
13.53
14.61
16.26
17.15
16.47
14.12
10.51
6.24
1.82
-2.54
-6.90
-11.53
-16.76
-22.98
-30.63
-40.24
-52.19
-66.33
-81.50
-95.29
-104.38
-105.38
-96.10
-76.43
-48.59
-16.53
15.35
43.36
65.22
80.10
88.21
90.21
86.94
79.41
68.91
57.00
45.29
35.19
27.57
22.61
19.87
18.44
17.28
15.51
12.61
8.57
3.74
-1.35
-6.30
-10.97
-15.59
-20.66
-26.82
-34.74
-44.95
-57.66
-72.36
-87.59
-100.79
-108.68
-108.16
-97.30
-76.26
-47.45
-14.94
16.77
43.98
64.57
78.05
84.98
86.29
82.74
75.00
63.94
50.91
37.80
26.56
18.68
14.66
13.81
14.62
15.31
14.50
11.58
6.76
0.79
-5.46
-11.36
-16.70
-21.77
-27.16
-33.74
-42.41
-53.86
-68.17
-84.30
-99.92
-111.63
-115.81
-109.89
-93.30
-67.92
-37.46
-6.34
21.73
44.48
61.16
71.99
77.49
78.08
74.09
66.16
55.46
43.72
32.86
24.40
19.02
16.38
15.34
14.56
13.02
10.34
6.83
3.04
-0.61
-4.22
-8.32
-13.63
-20.64
-29.53
-40.24
-52.63
-66.48
-81.09
-94.87
-105.19
-108.84
-103.16
-87.18
-62.30
-31.97
-0.50
28.29
52.08
70.16
82.80
90.46
93.33
91.37
84.83
74.69
62.69
50.92
41.19
34.48
30.69
28.85
27.57
25.65
22.41
17.87
12.55
7.13
2.12
-2.37
-6.69
-11.45
-17.36
-25.08
-35.06
-47.51
-62.08
-77.57
-91.71
-101.32
-103.06
-94.50
-75.25
-47.29
-14.59
18.17
46.96
69.39
85.05
94.76
99.80
101.09
99.07
93.89
86.01
76.43
66.61
58.11
52.03
48.72
47.70
47.96
48.34
47.91
46.13
42.92
38.56
33.52
28.36
23.52
19.24
15.47
11.71
6.98
-0.03
-10.62
-25.38
-43.46
-62.22
-77.61
-85.22
-81.90
-66.94
-42.48
-12.88
16.78
42.24
61.05
72.66
77.86
77.88
73.80
66.37
56.30
44.57
32.49
21.56
12.92
7.07
3.66
1.78
0.34
-1.49
-4.10
-7.41
-11.20
-15.27
-19.58
-24.25
-29.47
-35.36
-41.98
-49.35
-57.68
-67.34
-78.71
-91.65
-104.99
-116.22
-121.90
-118.74
-104.85
-80.65
-49.01
-14.34
18.80
46.95
68.31
82.62
90.48
92.76
90.32
84.10
75.23
65.10
55.10
46.39
39.60
34.74
31.29
28.45
25.39
21.49
16.44
10.29
3.28
-4.26
-12.08
-20.09
-28.31
-36.76
-45.44
-54.30
-63.51
-73.59
-85.29
-99.18
-114.86
-130.47
-142.68
-147.60
-142.12
-125.27
-98.76
-66.42
-32.96
-2.43
22.67
41.50
54.39
62.04
65.16
64.33
60.25
53.82
46.21
38.65
32.23
27.69
25.37
25.14
26.42
28.34
29.89
30.19
28.70
25.31
20.31
14.23
7.59
0.86
-5.68
-11.91
-17.90
-24.07
-31.25
-40.51
-52.65
-67.50
-83.24
-96.41
-102.71
-98.49
-82.25
-55.39
-21.94
12.87
44.25
69.11
86.49
96.95
101.76
102.15
99.08
93.34
85.82
77.51
69.32
61.90
55.48
49.96
45.12
40.79
36.92
33.42
30.17
26.90
23.22
18.77
13.24
6.54
-1.19
-9.56
-18.08
-26.41
-34.55
-43.11
-53.06
-65.15
-79.22
-93.58
-105.08
-109.97
-105.24
-89.83
-65.24
-35.02
-3.62
25.00
48.29
65.33
76.34
81.97
82.87
79.57
72.66
63.04
51.88
40.48
29.97
21.10
14.16
9.13
5.74
3.55
2.04
0.52
-1.64
-4.91
-9.53
-15.38
-22.16
-29.47
-36.99
-44.50
-52.03
-59.86
-68.54
-78.54
-89.82
-101.20
-110.29
-113.86
-108.92
-93.95
-69.74
-39.25
-6.74
23.67
49.11
68.36
81.57
89.44
92.67
91.76
87.15
79.56
70.10
60.20
51.23
44.17
39.39
36.68
35.40
34.73
33.92
32.42
29.99
26.67
22.70
18.36
13.78
8.88
3.39
-3.08
-10.92
-20.47
-31.94
-45.24
-59.65
-73.51
-84.17
-88.54
-84.01
-69.62
-46.63
-18.34
10.98
37.49
58.76
74.14
84.17
89.81
91.70
90.00
84.75
76.25
65.38
53.50
42.06
32.22
24.54
18.99
15.13
12.39
10.23
8.15
5.73
2.54
-1.72
-7.16
-13.64
-20.75
-28.03
-35.08
-41.73
-48.13
-54.77
-62.37
-71.61
-82.48
-93.89
-103.41
-107.71
-103.66
-89.61
-66.27
-36.71
-5.29
23.72
47.44
64.81
76.23
82.68
84.98
83.59
78.84
71.31
62.11
52.66
44.32
37.93
33.61
30.94
29.25
27.94
26.58
24.88
22.56
19.40
15.27
10.29
4.85
-0.61
-5.75
-10.61
-15.54
-21.05
-27.68
-35.79
-45.39
-55.91
-66.01
-73.48
-75.60
-69.95
-55.39
-32.74
-4.70
24.92
52.34
74.91
91.42
101.85
106.75
106.72
102.21
93.73
82.15
68.71
54.98
42.42
32.06
24.37
19.23
16.10
14.22
12.82
11.14
8.64
4.98
0.06
-6.03
-13.03
-20.72
-28.94
-37.69
-47.13
-57.55
-69.30
-82.64
-97.34
-112.38
-125.68
-134.41
-135.66
-127.56
-110.09
-85.38
-57.09
-29.19
-4.83
14.38
28.24
37.39
42.60
44.45
43.44
40.24
35.90
31.76
29.03
28.50
30.24
33.71
37.96
41.89
44.63
45.69
45.07
43.18
40.63
37.98
35.50
33.09
30.40
26.96
22.31
15.94
7.35
-3.73
-16.96
-30.88
-42.89
-49.78
-48.87
-39.06
-21.43
1.01
24.41
45.31
61.51
72.28
77.99
79.46
77.48
72.68
65.56
56.69
46.84
36.95
27.92
20.51
15.04
11.36
8.80
6.47
3.47
-0.80
-6.50
-13.41
-21.12
-29.23
-37.43
-45.60
-53.74
-61.89
-70.18
-78.87
-88.30
-98.70
-109.82
-120.44
-128.37
-130.91
-125.74
-112.09
-91.21
-66.17
-40.84
-18.64
-1.66
9.58
15.58
17.17
14.95
9.24
0.42
-10.80
-23.20
-35.24
-45.39
-52.47
-55.97
-56.10
-53.71
-50.02
-46.24
-43.22
-41.28
-40.33
-40.13
-40.52
-41.61
-43.72
-47.20
-52.37
-59.45
-68.58
-79.64
-91.98
-104.01
-113.26
-116.76
-112.02
-97.94
-75.44
-47.28
-17.23
11.05
34.93
53.14
65.61
72.94
75.89
75.25
71.89
66.88
61.51
57.10
54.63
54.53
56.49
59.71
63.17
65.98
67.58
67.80
66.78
64.88
62.51
59.96
57.31
54.36
50.69
45.86
39.47
31.24
20.89
8.33
-5.98
-20.61
-32.91
-39.40
-36.80
-23.34
0.31
30.88
63.42
92.75
114.84
127.57
130.81
125.83
114.67
99.53
82.56
65.73
50.78
39.10
31.45
27.93
27.88
30.08
33.19
36.11
38.34
39.97
41.35
42.58
43.17
41.91
37.28
28.03
13.58
-5.80
-29.24
-55.53
-83.28
-110.74
-135.52
-154.65
-165.14
-165.03
-154.31
-135.25
-111.81
-88.37
-68.45
-54.03
-45.61
-42.82
-45.02
-51.49
-61.26
-72.82
-84.12
-92.98
-97.76
-97.84
-93.76
-86.91
-79.03
-71.64
-65.66
-61.30
-58.28
-56.16
-54.84
-54.82
-57.24
-63.49
-74.56
-90.44
-109.89
-130.43
-148.80
-161.49
-165.39
-158.38
-139.83
-110.83
-74.16
-33.66
6.65
43.42
74.57
99.10
116.76
127.53
131.54
129.37
122.39
112.82
103.26
95.80
91.30
89.15
87.65
84.96
79.97
72.73
64.24
55.75
48.09
41.17
34.00
25.20
13.56
-1.53
-19.88
-40.34
-60.86
-78.63
-90.46
-93.48
-86.09
-68.64
-43.51
-14.55
14.06
39.00
58.29
71.35
78.35
79.64
75.65
67.08
55.25
42.21
30.23
21.11
15.61
13.32
13.02
13.45
13.85
14.14
14.66
15.71
17.09
18.06
17.38
13.79
6.33
-5.42
-21.08
-39.31
-57.75
-73.22
-82.24
-82.01
-71.18
-50.47
-22.52
8.88
39.94
67.70
90.38
107.20
117.81
121.99
119.65
111.20
97.92
81.90
65.61
51.09
39.50
30.85
24.29
18.68
13.04
6.89
0.20
-6.87
-14.21
-22.01
-30.78
-41.27
-54.25
-70.20
-88.90
-109.08
-128.24
-143.00
-149.85
-146.15
-131.06
-105.87
-73.66
-38.35
-3.67
27.62
53.79
73.80
86.89
92.39
89.96
80.15
64.71
46.53
28.94
14.78
5.59
1.27
0.38
0.95
1.40
1.06
0.20
-0.52
-0.73
-0.89
-2.28
-6.61
-15.43
-29.49
-48.44
-70.54
-92.80
-111.32
-121.98
-121.43
-108.12
-83.02
-49.52
-12.44
23.35
54.27
78.49
95.69
106.24
110.55
108.93
102.00
91.08
78.34
66.17
56.53
50.11
46.34
43.73
40.80
36.74
31.63
26.25
21.45
17.54
14.06
9.85
3.44
-6.47
-20.51
-38.43
-58.66
-78.51
-94.40
-102.65
-100.60
-87.50
-64.96
-36.53
-6.62
20.81
43.08
58.92
67.98
70.14
65.24
53.36
35.40
13.52
-9.15
-29.22
-44.10
-52.67
-55.41
-53.87
-49.90
-44.97
-39.98
-35.52
-32.21
-30.94
-32.76
-38.58
-48.77
-62.94
-79.78
-97.09
-111.86
-120.60
-119.92
-107.55
-83.15
-48.74
-8.36
32.98
70.80
102.11
125.79
142.05
151.63
155.24
153.49
147.22
137.95
127.88
119.40
114.35
113.37
115.63
119.18
121.62
120.93
116.08
107.19
95.31
81.93
68.44
55.74
44.14
33.45
23.14
12.68
1.78
-9.22
-19.22
-26.42
-28.75
-24.67
-13.83
2.56
21.99
41.46
58.35
70.98
78.69
81.42
79.36
72.74
62.12
48.59
33.87
20.02
8.87
1.62
-1.35
-0.24
4.56
12.75
23.99
37.60
52.15
65.36
74.37
76.36
69.40
53.02
28.61
-0.54
-29.54
-52.47
-63.58
-58.61
-36.20
1.34
48.26
96.78
139.20
169.90
186.53
189.82
182.49
167.70
148.13
125.59
101.39
76.84
53.48
32.92
16.32
4.03
-4.66
-11.27
-17.59
-25.07
-34.34
-45.08
-56.31
-67.04
-76.80
-86.02
-95.81
-107.45
-121.77
-138.67
-157.11
-175.31
-191.06
-202.02
-206.09
-201.75
-188.51
-167.20
-140.01
-110.10
-80.86
-55.17
-34.97
-21.11
-13.54
-11.59
-14.02
-19.09
-24.67
-28.58
-29.14
-25.64
-18.69
-9.97
-1.70
4.17
6.60
5.70
2.49
-1.65
-5.65
-9.09
-12.17
-15.46
-19.55
-24.81
-31.31
-38.59
-45.59
-50.52
-51.20
-45.68
-33.06
-14.09
8.82
32.21
52.68
67.61
75.67
76.59
70.82
59.25
43.15
24.30
4.85
-12.97
-27.47
-37.99
-45.00
-49.87
-54.16
-59.11
-65.27
-72.62
-80.86
-89.84
-99.69
-110.77
-123.45
-137.89
-153.91
-170.92
-187.80
-202.74
-213.33
-216.89
-211.37
-196.10
-172.32
-142.96
-111.62
-81.38
-53.89
-29.33
-6.97
13.96
33.69
51.98
68.59
83.70
97.96
112.11
126.43
140.48
153.29
163.93
172.10
178.34
183.67
188.93
194.07
197.83
197.92
191.73
177.12
153.15
120.50
81.58
40.29
1.39
-30.48
-51.80
-61.09
-59.18
-48.81
-33.72
-17.55
-3.16
7.76
14.38
16.39
13.87
7.32
-2.15
-12.87
-22.94
-30.78
-35.69
-37.97
-38.68
-39.05
-39.91
-41.37
-43.01
-44.25
-44.84
-45.07
-45.76
-48.00
-52.81
-60.90
-72.34
-86.27
-100.70
-112.66
-118.87
-116.60
-104.70
-84.01
-57.09
-27.40
1.67
27.51
48.41
63.43
72.11
74.42
70.99
63.17
52.90
42.29
33.03
25.96
20.94
17.21
13.85
10.29
6.51
2.91
-0.07
-2.34
-4.29
-6.80
-10.96
-17.72
-27.56
-40.10
-53.87
-66.27
-74.05
-74.07
-64.46
-45.25
-18.59
11.90
42.25
69.13
90.36
104.85
112.20
112.30
105.37
92.15
74.19
53.81
33.71
16.36
3.47
-4.30
-7.33
-6.67
-3.59
0.75
5.52
10.14
14.04
16.50
16.56
13.10
5.22
-7.49
-24.38
-43.59
-61.94
-75.47
-80.37
-74.00
-55.92
-28.03
5.84
41.12
73.59
100.24
119.35
130.23
132.84
127.63
115.67
98.77
79.43
60.34
43.83
31.28
23.12
18.91
17.80
18.86
21.28
24.38
27.54
30.13
31.52
31.02
27.96
21.71
11.87
-1.36
-16.84
-32.33
-44.79
-51.12
-49.23
-38.71
-21.15
0.39
22.28
41.27
55.05
62.39
63.03
57.44
46.77
32.77
17.76
4.08
-6.38
-12.66
-14.87
-13.97
-11.23
-7.84
-4.63
-2.10
-0.55
-0.24
-1.49
-4.64
-10.11
-18.37
-29.75
-44.04
-60.02
-75.18
-86.00
-88.86
-81.25
-62.77
-35.48
-3.28
29.24
57.99
80.10
94.11
99.63
97.01
87.27
72.06
53.77
35.30
19.56
8.89
4.50
6.23
12.69
21.70
30.93
38.45
43.16
44.77
43.63
40.35
35.45
29.10
21.19
11.55
0.29
-11.81
-23.25
-31.98
-36.00
-34.00
-25.88
-12.84
2.97
19.04
33.20
43.85
50.11
51.65
48.57
41.39
31.01
18.73
5.98
-5.89
-15.92
-23.68
-29.11
-32.50
-34.29
-34.99
-35.12
-35.23
-35.77
-37.14
-39.68
-43.78
-49.79
-57.75
-67.13
-76.44
-83.36
-85.26
-80.09
-67.25
-47.89
-24.70
-1.00
20.19
36.88
48.18
54.10
55.04
51.64
44.74
35.45
25.15
15.22
6.69
0.01
-4.92
-8.48
-11.06
-12.86
-13.94
-14.43
-14.67
-15.21
-16.76
-20.00
-25.53
-33.63
-44.04
-55.65
-66.41
-73.59
-74.50
-67.51
-52.71
-32.09
-8.90
13.38
31.99
45.46
53.52
56.59
55.38
50.63
43.22
34.22
24.91
16.47
9.64
4.51
0.62
-2.71
-5.98
-9.29
-12.42
-15.12
-17.40
-19.64
-22.58
-27.03
-33.64
-42.57
-53.24
-64.25
-73.39
-78.13
-76.33
-66.88
-50.34
-28.74
-5.13
17.40
36.39
50.45
59.08
62.38
60.82
55.13
46.39
36.02
25.58
16.43
9.28
4.14
0.42
-2.61
-5.51
-8.41
-11.16
-13.57
-15.75
-18.12
-21.39
-26.38
-33.75
-43.72
-55.82
-68.63
-79.80
-86.51
-86.24
-77.65
-61.21
-39.09
-14.50
9.33
29.98
46.15
57.49
64.12
66.23
64.09
58.19
49.52
39.55
29.94
22.04
16.41
12.77
10.13
7.38
3.78
-0.76
-5.78
-10.64
-14.97
-18.93
-23.08
-28.20
-34.95
-43.77
-54.75
-67.47
-80.72
-92.38
-99.52
-99.23
-89.61
-70.64
-44.41
-14.54
15.00
41.02
61.76
76.73
86.21
90.64
90.45
86.14
78.60
69.15
59.34
50.54
43.58
38.63
35.35
33.14
31.34
29.37
26.72
23.01
17.95
11.54
4.06
-4.05
-12.29
-20.35
-28.21
-36.17
-44.72
-54.45
-65.88
-79.21
-93.94
-108.55
-120.42
-126.25
-123.04
-109.19
-85.29
-54.12
-19.82
13.41
42.44
65.79
83.25
95.21
101.99
103.69
100.51
93.24
83.47
73.32
64.76
58.90
55.69
54.06
52.58
50.20
46.65
42.43
38.34
34.92
32.07
29.03
24.71
18.22
9.29
-1.57
-13.25
-24.50
-34.32
-42.38
-49.00
-55.04
-61.59
-69.66
-79.95
-92.60
-106.84
-120.84
-131.71
-136.05
-130.91
-114.86
-88.67
-55.34
-19.15
15.63
45.82
69.95
87.85
100.14
107.37
109.90
108.07
102.59
94.72
86.11
78.36
72.49
68.68
66.37
64.72
63.08
61.24
59.40
57.78
56.35
54.62
51.79
47.18
40.52
32.27
23.33
14.71
7.03
0.25
-6.27
-13.38
-21.63
-30.94
-40.64
-49.77
-57.53
-63.67
-68.54
-73.00
-78.13
-84.93
-94.14
-105.83
-119.05
-131.57
-140.09
-141.00
-131.54
-111.03
-81.27
-46.17
-10.36
22.18
49.06
69.59
84.16
93.44
97.90
97.86
93.83
86.85
78.42
70.19
63.46
58.86
56.29
55.19
54.85
54.64
54.12
53.06
51.32
48.81
45.48
41.32
36.32
30.53
23.98
16.78
9.11
1.22
-6.64
-14.28
-21.64
-28.75
-35.64
-42.37
-49.01
-55.74
-62.96
-71.24
-81.05
-92.26
-103.77
-113.31
-117.93
-114.82
-102.46
-81.24
-53.55
-23.02
6.61
32.52
53.26
68.60
78.92
84.73
86.36
84.24
79.06
71.93
64.26
57.34
52.01
48.54
46.65
45.78
45.42
45.23
45.03
44.73
44.11
42.83
40.47
36.71
31.48
25.12
18.27
11.61
5.58
0.20
-4.95
-10.48
-16.85
-24.13
-31.91
-39.45
-46.07
-51.37
-55.52
-59.21
-63.44
-69.26
-77.32
-87.50
-98.57
-108.25
-113.60
-111.82
-101.22
-81.88
-55.82
-26.47
2.40
27.72
47.75
62.12
71.33
76.09
76.95
74.30
68.74
61.24
53.17
45.95
40.60
37.43
36.01
35.51
35.08
34.18
32.70
30.81
28.80
26.90
25.12
23.24
20.78
17.20
12.07
5.29
-2.79
-11.43
-19.75
-27.10
-33.26
-38.50
-43.41
-48.68
-54.90
-62.42
-71.29
-81.02
-90.45
-97.66
-100.33
-96.31
-84.51
-65.38
-40.99
-14.44
11.01
32.84
49.64
61.05
67.33
68.98
66.58
60.87
52.94
44.22
36.12
29.71
25.36
22.75
21.13
19.81
18.48
17.25
16.46
16.26
16.39
16.21
14.90
11.85
6.87
0.29
-7.18
-14.68
-21.49
-27.20
-31.90
-36.09
-40.63
-46.41
-54.15
-63.98
-75.24
-86.36
-95.02
-98.67
-95.23
-83.81
-65.10
-41.18
-15.03
10.29
32.34
49.59
61.45
67.97
69.65
67.27
61.86
54.62
46.80
39.49
33.45
28.94
25.82
23.62
21.87
20.23
18.64
17.28
16.33
15.76
15.20
13.98
11.37
6.98
0.95
-6.19
-13.61
-20.67
-27.07
-32.98
-38.89
-45.48
-53.41
-62.98
-73.89
-84.84
-93.63
-97.45
-93.81
-81.44
-61.00
-34.97
-6.92
19.59
41.97
58.98
70.55
77.20
79.57
78.16
73.50
66.27
57.46
48.21
39.52
32.05
26.02
21.30
17.61
14.76
12.65
11.17
10.10
9.00
7.30
4.53
0.48
-4.64
-10.34
-16.06
-21.51
-26.73
-32.18
-38.51
-46.41
-56.28
-67.91
-80.19
-91.08
-97.93
-98.17
-90.21
-74.12
-51.76
-26.23
-0.97
21.21
38.65
50.85
58.11
61.00
60.16
56.30
50.21
42.86
35.24
28.17
22.20
17.56
14.22
12.05
10.79
10.11
9.60
8.77
7.22
4.71
1.19
-3.15
-8.07
-13.40
-19.03
-25.00
-31.49
-38.81
-47.40
-57.56
-69.08
-80.78
-90.49
-95.40
-92.98
-81.95
-62.95
-38.36
-11.63
13.84
35.58
52.38
64.15
71.33
74.56
74.37
71.25
65.71
58.39
50.06
41.51
33.59
26.95
22.03
18.87
17.09
16.01
14.86
13.04
10.28
6.70
2.53
-1.97
-6.76
-11.92
-17.62
-24.03
-31.36
-39.94
-50.12
-61.96
-74.70
-86.41
-94.21
-95.03
-86.79
-69.33
-44.72
-16.61
10.96
34.76
53.07
65.67
73.19
76.46
76.10
72.50
66.10
57.62
48.11
38.83
30.93
25.17
21.75
20.29
19.94
19.65
18.51
15.97
12.07
7.28
2.30
-2.34
-6.46
-10.37
-14.59
-19.75
-26.38
-34.91
-45.47
-57.68
-70.27
-80.97
-86.86
-85.23
-74.63
-55.61
-30.75
-3.75
21.66
42.90
58.82
69.47
75.41
77.13
74.89
68.89
59.69
48.40
36.59
25.93
17.69
12.35
9.52
8.21
7.23
5.69
3.24
0.05
-3.44
-6.84
-10.08
-13.36
-17.09
-21.70
-27.55
-34.93
-44.01
-54.60
-65.94
-76.37
-83.61
-85.12
-79.11
-65.18
-44.63
-20.21
4.78
27.37
45.63
58.80
66.98
70.58
70.04
65.78
58.36
48.72
38.23
28.38
20.43
14.99
11.85
10.16
8.81
6.89
4.11
0.73
-2.63
-5.48
-7.73
-9.83
-12.54
-16.65
-22.69
-30.86
-41.01
-52.51
-64.20
-74.25
-80.30
-80.12
-72.26
-56.76
-35.39
-11.05
13.02
34.23
51.13
63.31
70.92
74.29
73.63
69.22
61.65
51.98
41.66
32.13
24.46
19.00
15.41
12.83
10.36
7.38
3.76
-0.22
-4.07
-7.42
-10.32
-13.26
-17.00
-22.31
-29.70
-39.20
-50.30
-61.87
-72.21
-79.26
-80.93
-75.68
-63.05
-43.98
-20.67
3.97
27.14
46.85
62.09
72.74
79.02
81.15
79.24
73.54
64.77
54.26
43.73
34.74
28.20
23.97
21.12
18.42
14.97
10.59
5.74
1.18
-2.61
-5.60
-8.37
-11.70
-16.42
-23.09
-32.03
-43.07
-55.45
-67.58
-77.13
-81.51
-78.64
-67.72
-49.65
-26.84
-2.40
20.76
40.55
55.94
66.61
72.60
74.10
71.43
65.23
56.58
46.90
37.61
29.78
23.88
19.76
16.82
14.34
11.73
8.75
5.50
2.30
-0.54
-3.00
-5.41
-8.41
-12.77
-19.21
-28.02
-38.94
-50.90
-62.09
-70.19
-72.95
-68.86
-57.73
-40.83
-20.55
0.40
19.71
35.90
48.30
56.67
60.87
60.81
56.65
49.09
39.49
29.52
20.71
13.98
9.40
6.35
3.93
1.39
-1.58
-4.84
-7.98
-10.66
-12.89
-15.08
-18.02
-22.63
-29.69
-39.51
-51.70
-64.91
-76.93
-85.08
-86.89
-80.88
-67.16
-47.44
-24.53
-1.47
19.31
36.41
49.35
58.15
62.88
63.56
60.37
53.94
45.53
36.77
29.17
23.63
20.14
17.93
15.88
13.13
9.41
5.14
1.08
-2.12
-4.36
-6.18
-8.61
-12.82
-19.69
-29.47
-41.64
-54.76
-66.71
-74.95
-77.17
-71.95
-59.27
-40.66
-18.73
3.59
23.84
40.57
53.29
62.07
67.09
68.45
66.20
60.70
52.79
43.82
35.28
28.42
23.80
21.17
19.65
18.12
15.70
12.08
7.57
2.84
-1.51
-5.29
-8.80
-12.67
-17.58
-24.00
-32.20
-42.10
-53.30
-64.83
-75.06
-81.82
-82.89
-76.81
-63.53
-44.59
-22.64
-0.62
19.14
35.33
47.60
56.00
60.63
61.50
58.66
52.62
44.48
35.76
28.00
22.25
18.77
17.05
16.14
15.06
13.15
10.26
6.64
2.74
-1.09
-4.72
-8.31
-12.22
-16.82
-22.43
-29.23
-37.35
-46.71
-56.87
-66.79
-74.76
-78.60
-76.32
-66.86
-50.67
-29.71
-6.89
14.89
33.49
47.91
58.11
64.51
67.54
67.53
64.82
59.92
53.66
46.98
40.80
35.78
32.25
30.19
29.25
28.87
28.33
26.96
24.28
20.21
14.92
8.87
2.49
-3.88
-10.08
-16.12
-22.12
-28.36
-35.29
-43.42
-53.05
-63.82
-74.40
-82.52
-85.57
-81.47
-69.55
-50.87
-27.96
-3.88
18.70
38.12
53.77
65.63
73.90
78.64
79.97
78.22
74.15
68.81
63.31
58.47
54.67
51.89
49.80
48.03
46.21
44.08
41.46
38.20
34.15
29.08
22.75
14.96
5.79
-4.30
-14.46
-23.68
-31.18
-36.69
-40.67
-44.08
-48.14
-53.86
-61.72
-71.47
-81.94
-91.19
-96.84
-96.77
-89.83
-76.39
-58.35
-38.54
-19.73
-3.80
8.66
18.06
25.20
30.62
34.34
36.14
35.91
34.06
31.52
29.39
28.54
29.26
31.23
33.73
36.07
37.83
38.97
39.63
39.83
39.38
37.82
34.73
29.99
23.91
17.15
10.53
4.68
-0.19
-4.25
-8.13
-12.67
-18.67
-26.73
-36.92
-48.62
-60.39
-70.23
-75.91
-75.69
-68.83
-55.92
-38.73
-19.69
-1.18
15.07
28.22
38.17
45.15
49.42
51.14
50.40
47.54
43.19
38.17
33.30
29.10
25.73
23.00
20.68
18.61
16.82
15.47
14.62
14.12
13.55
12.30
9.72
5.48
-0.35
-7.23
-14.28
-20.65
-25.79
-29.67
-32.76
-35.85
-39.84
-45.40
-52.72
-61.22
-69.55
-75.68
-77.49
-73.41
-63.06
-47.47
-28.80
-9.67
7.58
21.43
31.26
37.07
39.28
38.45
35.29
30.58
25.20
19.96
15.48
12.17
10.20
9.56
10.03
11.25
12.70
13.85
14.24
13.57
11.77
8.88
5.02
0.37
-4.85
-10.36
-15.90
-21.32
-26.70
-32.37
-38.82
-46.33
-54.65
-62.77
-68.91
-71.09
-67.66
-58.12
-43.33
-25.37
-6.94
9.49
22.28
30.87
35.54
37.03
36.12
33.45
29.46
24.52
19.08
13.65
8.82
5.11
2.87
2.12
2.50
3.39
4.06
3.96
2.88
0.90
-1.71
-4.73
-8.05
-11.72
-15.81
-20.36
-25.42
-31.15
-37.85
-45.79
-54.80
-63.95
-71.41
-74.91
-72.42
-63.07
-47.55
-27.96
-7.13
12.36
28.75
41.39
50.36
56.03
58.71
58.54
55.75
50.82
44.58
38.05
32.17
27.56
24.41
22.56
21.62
21.09
20.48
19.43
17.82
15.84
13.95
12.63
12.16
12.36
12.69
12.34
10.55
6.85
1.16
-6.03
-13.68
-20.12
-23.35
-21.53
-13.70
-0.29
16.79
34.72
50.61
62.41
69.23
71.24
69.14
63.70
55.54
45.22
33.44
21.19
9.60
-0.32
-7.98
-13.46
-17.38
-20.70
-24.23
-28.39
-33.05
-37.64
-41.47
-44.10
-45.53
-46.28
-47.15
-49.04
-52.66
-58.50
-66.72
-77.04
-88.55
-99.56
-107.67
-110.30
-105.45
-92.48
-72.51
-48.18
-22.85
0.44
19.74
34.37
44.60
51.02
54.08
53.96
50.77
44.93
37.39
29.50
22.70
18.03
15.69
15.03
14.85
13.89
11.49
7.78
3.47
-0.61
-4.04
-7.10
-10.53
-15.20
-21.69
-30.17
-40.42
-52.02
-64.20
-75.74
-84.84
-89.38
-87.57
-78.73
-63.75
-44.85
-24.86
-6.33
9.12
20.83
28.73
32.86
33.26
30.09
23.97
16.12
8.23
1.94
-1.61
-2.10
-0.10
3.29
6.80
9.34
10.29
9.45
7.00
3.25
-1.57
-7.34
-13.96
-21.19
-28.44
-34.81
-39.22
-40.71
-38.68
-33.06
-24.23
-12.96
-0.25
12.89
25.49
36.82
46.42
54.08
59.73
63.30
64.64
63.59
60.15
54.64
47.78
40.64
34.37
29.89
27.62
27.32
28.18
29.05
28.80
26.63
22.23
15.77
7.70
-1.35
-10.55
-18.82
-24.80
-26.96
-23.98
-15.11
-0.52
18.66
40.56
62.93
83.61
100.90
113.88
122.33
126.78
128.17
127.55
125.72
123.04
119.50
114.80
108.82
101.74
94.22
87.14
81.31
77.12
74.35
72.22
69.65
65.60
59.42
50.95
40.55
28.88
16.66
4.45
-7.51
-19.33
-31.41
-44.26
-58.14
-72.84
-87.34
-99.84
-108.13
-110.20
-104.91
-92.57
-74.93
-54.76
-35.05
-18.28
-6.01
1.21
3.55
1.53
-4.11
-12.49
-22.54
-32.95
-42.34
-49.53
-53.78
-55.06
-54.01
-51.70
-49.26
-47.44
-46.47
-46.04
-45.63
-44.91
-43.92
-43.02
-42.69
-43.26
-44.71
-46.78
-49.03
-50.83
-51.41
-49.84
-45.18
-36.80
-24.71
-9.73
6.65
22.63
36.52
47.08
53.53
55.56
53.18
46.82
37.37
26.20
14.91
5.04
-2.37
-7.05
-9.44
-10.44
-10.99
-11.72
-12.76
-13.90
-14.83
-15.43
-15.95
-16.90
-18.94
-22.61
-28.19
-35.56
-44.02
-52.33
-58.76
-61.43
-58.86
-50.49
-36.92
-19.87
-1.61
15.63
30.13
40.90
47.49
49.88
48.29
43.33
35.96
27.54
19.45
12.79
8.02
4.93
2.81
0.86
-1.46
-4.25
-7.26
-10.10
-12.54
-14.67
-16.89
-19.84
-24.27
-30.74
-39.46
-49.85
-60.54
-69.49
-74.45
-73.70
-66.59
-53.77
-37.00
-18.53
-0.46
15.61
28.65
38.01
43.20
43.96
40.45
33.52
24.61
15.51
7.74
2.18
-1.11
-2.67
-3.32
-3.75
-4.36
-5.31
-6.68
-8.59
-11.25
-14.93
-19.95
-26.63
-35.21
-45.59
-56.99
-67.82
-75.85
-78.76
-74.98
-64.36
-48.27
-29.21
-9.94
7.31
21.32
31.75
38.80
42.75
43.73
41.86
37.47
31.30
24.46
18.17
13.32
10.27
8.68
7.86
7.05
5.82
4.13
2.27
0.47
-1.34
-3.67
-7.37
-13.24
-21.80
-32.94
-45.74
-58.52
-69.03
-74.87
-74.10
-65.86
-50.69
-30.42
-7.61
15.18
36.01
53.79
68.06
78.64
85.29
87.81
86.21
81.04
73.52
65.31
58.02
52.71
49.59
48.00
46.81
44.90
41.60
36.92
31.34
25.51
19.79
14.03
7.66
-0.10
-9.94
-22.20
-36.67
-52.37
-67.51
-79.58
-85.91
-84.40
-74.34
-56.70
-33.98
-9.39
14.05
34.28
50.28
61.93
69.37
72.75
72.22
68.08
61.04
52.29
43.23
35.22
29.22
25.55
23.83
23.15
22.33
20.38
16.73
11.43
4.98
-1.96
-8.91
-15.77
-22.80
-30.49
-39.29
-49.58
-61.57
-75.15
-89.69
-103.70
-114.80
-120.06
-116.93
-104.16
-82.57
-54.86
-24.80
3.96
28.84
48.64
63.25
73.04
78.42
79.76
77.56
72.61
65.92
58.53
51.20
44.36
38.23
33.02
29.03
26.54
25.57
25.62
25.73
24.68
21.47
15.67
7.55
-2.06
-12.11
-21.68
-30.29
-37.99
-45.41
-53.51
-63.35
-75.69
-90.41
-106.12
-120.09
-128.76
-128.77
-118.15
-97.15
-68.26
-35.44
-2.79
26.54
50.94
70.12
84.42
94.17
99.40
100.04
96.40
89.50
81.05
72.99
66.87
63.31
61.85
61.32
60.43
58.36
55.03
51.00
46.93
43.18
39.52
35.20
29.40
21.64
12.05
1.36
-9.50
-19.74
-29.10
-37.78
-46.39
-55.67
-66.25
-78.59
-92.71
-107.93
-122.62
-134.16
-139.49
-135.91
-122.14
-98.90
-68.83
-35.70
-3.27
25.61
49.37
67.51
80.13
87.55
90.29
89.18
85.58
81.20
77.72
76.25
77.00
79.24
81.71
83.15
82.83
80.70
77.22
72.92
68.04
62.39
55.48
46.89
36.57
25.03
13.14
1.84
-8.25
-17.08
-25.16
-33.48
-43.13
-55.08
-69.73
-86.60
-104.09
-119.55
-129.79
-131.94
-124.39
-107.41
-83.17
-54.99
-26.43
-0.32
21.60
38.60
50.49
57.24
58.87
55.70
48.61
39.06
28.92
19.88
13.01
8.46
5.61
3.56
1.62
-0.32
-1.77
-2.11
-1.05
1.03
3.13
4.01
2.79
-0.79
-6.27
-12.78
-19.37
-25.37
-30.49
-34.93
-39.21
-44.19
-50.68
-59.15
-69.16
-79.14
-86.47
-88.18
-81.88
-66.66
-43.41
-14.55
16.77
47.56
75.54
99.30
118.01
131.17
138.44
139.80
135.77
127.44
116.37
104.26
92.54
82.19
73.70
67.10
62.26
58.89
56.59
54.75
52.61
49.35
44.25
36.99
27.70
17.03
5.92
-4.61
-13.74
-21.04
-26.63
-31.13
-35.54
-40.98
-48.40
-58.28
-70.26
-83.03
-94.31
-101.31
-101.46
-93.22
-76.76
-53.95
-27.87
-1.88
21.30
40.13
54.15
63.55
68.71
69.96
67.72
62.68
55.95
48.84
42.48
37.44
33.65
30.57
27.57
24.29
20.74
17.11
13.59
10.04
6.02
0.93
-5.67
-13.85
-23.17
-32.89
-42.09
-50.03
-56.31
-61.07
-64.97
-69.08
-74.54
-82.00
-91.14
-100.46
-107.42
-109.23
-103.68
-89.98
-69.04
-43.24
-15.64
10.67
33.28
50.66
62.15
67.79
68.19
64.31
57.37
48.63
39.31
30.34
22.35
15.63
10.28
6.24
3.40
1.58
0.49
-0.31
-1.38
-3.27
-6.41
-10.92
-16.70
-23.38
-30.54
-37.75
-44.66
-51.00
-56.75
-62.20
-67.96
-74.65
-82.27
-89.74
-94.77
-94.41
-86.07
-68.59
-42.90
-11.84
20.76
51.13
76.46
95.25
107.16
112.62
112.42
107.53
99.05
88.14
76.04
63.94
52.90
43.67
36.56
31.45
27.89
25.33
23.26
21.35
19.32
16.84
13.44
8.63
2.14
-5.91
-14.92
-24.07
-32.65
-40.43
-47.79
-55.67
-65.12
-76.83
-90.59
-104.97
-117.48
-125.01
-124.84
-115.48
-97.33
-72.61
-44.74
-17.32
6.86
26.32
40.82
50.97
57.59
61.38
62.82
62.29
60.24
57.25
53.94
50.82
48.19
46.08
44.41
43.06
41.87
40.67
39.21
37.20
34.37
30.59
25.91
20.58
14.87
9.00
3.00
-3.26
-10.14
-18.21
-28.03
-39.95
-53.57
-67.37
-78.83
-84.98
-83.35
-72.98
-54.89
-31.81
-7.33
15.23
33.60
46.84
55.07
58.93
59.20
56.54
51.63
45.14
37.78
30.26
23.14
16.79
11.44
7.20
4.12
2.13
0.94
0.10
-0.91
-2.49
-4.76
-7.50
-10.30
-12.84
-15.02
-17.11
-19.55
-22.91
-27.82
-34.89
-44.54
-56.60
-69.94
-82.14
-89.94
-90.11
-80.67
-61.80
-35.90
-6.93
20.92
44.34
61.59
72.39
77.36
77.52
73.83
67.21
58.51
48.64
38.49
28.85
20.36
13.47
8.42
5.24
3.69
3.27
3.29
3.07
2.11
0.20
-2.59
-6.08
-10.15
-14.75
-19.97
-25.91
-32.70
-40.54
-49.68
-60.16
-71.44
-81.99
-89.38
-90.77
-83.97
-68.40
-45.47
-18.25
9.57
34.81
55.56
71.21
81.99
88.40
90.86
89.66
85.23
78.28
69.84
61.04
52.91
46.13
40.87
36.88
33.58
30.27
26.34
21.51
15.83
9.67
3.42
-2.72
-8.79
-15.03
-21.71
-28.99
-37.04
-46.08
-56.47
-68.31
-80.96
-92.66
-100.56
-101.57
-93.50
-76.07
-51.27
-22.74
5.42
29.96
49.11
62.66
71.29
75.94
77.28
75.68
71.42
64.96
57.01
48.46
40.19
32.83
26.73
21.94
18.29
15.45
13.06
10.75
8.25
5.38
1.99
-2.07
-6.97
-12.87
-19.81
-27.74
-36.62
-46.55
-57.67
-69.85
-82.20
-92.72
-98.57
-96.88
-85.92
-66.00
-39.56
-10.40
17.53
41.33
59.57
72.08
79.32
81.86
80.10
74.55
66.07
55.93
45.70
36.73
29.88
25.37
22.82
21.53
20.67
19.57
17.70
14.83
10.95
6.26
1.08
-4.30
-9.80
-15.57
-21.92
-29.29
-38.09
-48.51
-60.28
-72.41
-83.04
-89.67
-89.81
-81.89
-66.08
-44.48
-20.52
2.21
21.04
34.87
43.93
49.03
50.82
49.51
45.07
37.82
28.70
19.25
11.15
5.58
2.85
2.37
3.02
3.66
3.54
2.47
0.70
-1.35
-3.30
-5.03
-6.67
-8.54
-11.06
-14.75
-20.10
-27.38
-36.32
-45.82
-53.88
-58.00
-55.85
-46.18
-29.29
-7.09
17.50
41.37
62.02
77.96
88.60
93.95
94.29
90.00
81.65
70.21
57.03
43.72
31.82
22.38
15.72
11.35
8.31
5.54
2.35
-1.39
-5.42
-9.32
-12.97
-16.63
-20.91
-26.35
-33.21
-41.28
-50.06
-58.88
-66.86
-72.74
-74.73
-70.68
-58.78
-38.37
-10.49
22.21
56.27
88.49
116.69
139.79
157.43
169.32
175.10
174.53
167.97
156.67
142.58
127.83
114.12
102.32
92.34
83.46
74.61
64.79
53.37
40.28
26.09
11.70
-1.88
-14.00
-24.58
-34.08
-43.26
-52.95
-63.82
-76.22
-89.96
-104.05
-116.57
-124.87
-126.19
-118.73
-102.43
-79.30
-52.82
-26.80
-4.18
13.53
26.18
34.23
38.14
38.09
34.21
27.04
17.82
8.32
0.28
-5.10
-7.57
-7.72
-6.66
-5.55
-5.20
-6.02
-8.00
-10.88
-14.29
-17.99
-21.92
-26.23
-31.30
-37.57
-45.46
-55.21
-66.61
-78.82
-90.23
-98.66
-101.76
-97.78
-86.22
-68.16
-46.07
-23.04
-1.96
15.18
27.47
34.89
37.81
36.72
32.15
24.85
15.90
6.71
-1.19
-6.64
-9.13
-9.13
-7.74
-6.41
-6.32
-7.99
-11.28
-15.60
-20.34
-25.19
-30.27
-35.98
-42.77
-50.97
-60.75
-72.07
-84.57
-97.27
-108.51
-116.00
-117.37
-110.97
-96.59
-75.71
-51.08
-25.91
-2.87
16.43
31.46
42.37
49.42
52.79
52.63
49.34
43.77
37.21
31.07
26.55
24.32
24.37
26.07
28.39
30.16
30.41
28.57
24.72
19.40
13.42
7.44
1.77
-3.70
-9.41
-15.92
-23.76
-33.36
-44.87
-57.86
-71.03
-82.17
-88.53
-87.70
-78.52
-61.71
-39.69
-15.80
6.78
25.85
40.43
50.43
56.10
57.69
55.44
49.77
41.50
31.90
22.50
14.64
9.14
6.10
4.98
4.86
4.85
4.36
3.26
1.74
0.17
-1.28
-2.68
-4.37
-6.82
-10.50
-15.75
-22.91
-32.20
-43.53
-56.22
-68.66
-78.37
-82.56
-79.01
-66.94
-47.54
-23.62
1.28
24.04
42.81
57.11
67.34
74.00
77.17
76.47
71.58
62.73
51.11
38.63
27.32
18.60
12.88
9.57
7.52
5.61
3.20
0.16
-3.29
-6.95
-10.87
-15.36
-20.84
-27.63
-35.83
-45.38
-56.22
-68.25
-81.17
-94.19
-105.76
-113.65
-115.48
-109.55
-95.55
-74.87
-50.23
-24.86
-1.49
18.21
33.70
45.22
53.16
57.83
59.33
57.82
53.79
48.13
42.01
36.65
32.91
31.16
31.17
32.26
33.53
34.20
33.81
32.29
29.85
26.85
23.61
20.37
17.27
14.34
11.44
8.10
3.61
-2.66
-10.69
-19.24
-25.70
-26.65
-19.02
-1.27
25.80
59.16
94.54
127.78
155.94
177.88
193.91
205.02
212.15
215.68
215.54
211.60
204.04
193.63
181.66
169.67
158.89
149.99
142.86
136.79
130.78
123.89
115.61
105.88
95.04
83.57
71.84
59.92
47.64
34.65
20.56
4.94
-12.56
-32.02
-52.88
-73.63
-91.70
-103.98
-107.76
-101.75
-86.73
-65.49
-41.94
-19.88
-2.05
10.36
17.41
19.92
18.85
14.98
8.93
1.22
-7.63
-16.94
-25.93
-33.70
-39.44
-42.60
-43.10
-41.42
-38.54
-35.57
-33.52
-32.94
-33.93
-36.21
-39.35
-42.89
-46.38
-49.48
-52.08
-54.48
-57.66
-63.11
-72.28
-85.59
-101.66
-117.12
-127.48
-128.74
-118.92
-98.98
-72.41
-43.88
-17.59
3.86
19.59
29.83
35.05
35.52
31.31
22.79
10.99
-2.26
-14.72
-24.33
-29.78
-30.87
-28.53
-24.52
-20.86
-19.14
-20.13
-23.52
-28.26
-33.14
-37.37
-40.92
-44.47
-48.91
-55.00
-63.12
-73.33
-85.39
-98.72
-111.92
-122.61
-127.68
-124.14
-110.33
-86.91
-56.88
-24.68
5.27
29.88
47.95
59.78
66.41
68.83
67.70
63.45
56.65
48.20
39.20
30.70
23.48
17.86
13.80
10.92
8.73
6.61
3.99
0.42
-4.24
-9.90
-16.35
-23.34
-30.79
-38.79
-47.49
-57.06
-67.73
-79.87
-93.80
-109.42
-125.58
-139.68
-147.94
-146.61
-133.34
-108.53
-75.48
-39.42
-5.77
21.53
40.87
52.69
58.55
60.02
58.14
53.34
45.96
36.55
26.12
15.90
7.08
0.45
-3.77
-5.95
-6.75
-7.02
-7.50
-8.78
-11.24
-15.08
-20.33
-26.87
-34.52
-43.06
-52.31
-62.30
-73.25
-85.64
-99.90
-116.03
-132.86
-147.85
-157.26
-157.13
-144.67
-119.53
-84.24
-43.64
-3.38
31.82
59.17
78.08
89.44
94.66
95.01
91.44
84.78
76.08
66.58
57.58
50.09
44.63
41.17
39.29
38.36
37.75
36.89
35.32
32.72
28.94
23.96
17.77
10.34
1.57
-8.62
-20.24
-33.26
-47.73
-63.85
-81.66
-100.45
-118.26
-131.67
-136.61
-129.67
-109.56
-77.92
-38.96
1.85
39.53
70.84
94.54
110.85
120.48
124.06
121.98
114.68
103.10
88.82
73.89
60.41
49.98
43.35
40.37
40.07
41.06
41.87
41.27
38.48
33.29
25.96
17.09
7.43
-2.38
-11.91
-21.11
-30.35
-40.46
-52.70
-68.27
-87.67
-109.82
-131.50
-147.73
-152.99
-143.27
-117.74
-79.42
-34.33
10.51
49.26
78.71
98.36
109.47
113.76
112.48
106.28
95.65
81.51
65.53
49.88
36.74
27.69
23.19
22.69
24.78
27.73
29.90
30.10
27.66
22.45
14.74
4.99
-6.22
-18.41
-31.26
-44.65
-58.67
-73.74
-90.34
-108.67
-128.00
-146.04
-159.02
-162.49
-152.90
-129.16
-93.57
-51.28
-8.74
28.44
56.94
76.07
87.03
91.61
91.27
86.87
79.10
68.93
57.85
47.55
39.43
34.16
31.67
31.32
32.29
33.91
35.59
36.80
36.92
35.38
31.82
26.26
19.24
11.52
3.78
-3.75
-11.40
-20.18
-31.47
-46.46
-65.43
-86.92
-107.44
-121.87
-124.83
-112.54
-84.43
-43.68
3.62
50.38
90.60
120.86
140.50
150.72
153.41
150.16
142.06
130.04
115.28
99.38
84.04
70.57
59.56
50.80
43.63
37.35
31.45
25.60
19.51
12.73
4.72
-4.98
-16.56
-29.84
-44.34
-59.49
-74.86
-90.39
-106.49
-123.97
-143.56
-165.16
-187.11
-206.02
-217.33
-216.62
-201.10
-170.74
-128.45
-79.28
-29.08
16.93
55.12
83.64
102.19
111.51
112.86
107.78
98.00
85.43
72.16
60.29
51.54
46.85
46.20
48.58
52.40
55.92
57.73
56.96
53.39
47.38
39.65
31.03
22.16
13.28
4.15
-5.80
-17.41
-31.36
-47.91
-66.25
-84.17
-97.99
-103.16
-95.60
-73.27
-37.25
8.14
56.54
101.41
137.84
163.47
178.32
183.71
181.29
172.37
158.03
139.51
118.52
97.21
77.78
61.92
50.38
42.85
38.17
34.74
31.08
26.12
19.42
11.11
1.63
-8.55
-19.11
-29.93
-40.97
-52.27
-63.95
-76.41
-90.35
-106.45
-124.63
-143.20
-158.60
-165.96
-160.71
-140.34
-105.75
-61.17
-12.89
32.69
70.87
99.46
118.41
128.85
132.09
129.07
120.54
107.45
91.31
74.21
58.40
45.82
37.52
33.54
33.02
34.55
36.56
37.70
37.02
34.02
28.61
20.98
11.50
0.63
-11.23
-23.83
-37.18
-51.71
-68.22
-87.45
-109.28
-131.95
-151.63
-163.09
-161.22
-142.95
-108.79
-62.95
-12.19
36.39
77.25
107.60
127.24
137.58
140.50
137.56
129.82
118.12
103.48
87.31
71.32
57.25
46.36
39.10
34.96
32.69
30.71
27.68
22.91
16.43
8.86
0.91
-6.88
-14.42
-22.05
-30.36
-40.03
-51.84
-66.55
-84.66
-105.82
-128.11
-147.81
-159.89
-159.49
-143.80
-113.43
-72.55
-27.58
14.94
50.33
76.60
94.07
104.09
107.92
106.22
99.36
88.05
73.76
58.64
44.97
34.57
28.30
25.92
26.34
27.97
29.26
29.14
27.28
24.09
20.45
17.19
14.73
12.84
10.77
7.50
1.92
-6.99
-20.09
-37.66
-58.77
-80.66
-98.81
-107.89
-103.51
-84.06
-51.61
-11.36
29.98
66.45
94.27
112.30
121.29
122.86
118.54
109.62
97.26
82.88
68.18
54.99
44.85
38.64
36.40
37.35
40.09
43.03
44.75
44.37
41.66
36.98
30.91
23.95
16.33
7.95
-1.43
-12.00
-23.98
-37.69
-53.57
-71.74
-91.36
-109.91
-123.33
-126.91
-117.01
-92.67
-56.34
-13.27
30.21
68.63
98.64
119.21
130.92
134.92
132.29
123.89
110.66
93.94
75.55
57.47
41.45
28.53
18.85
11.70
5.82
-0.06
-6.88
-14.88
-23.76
-32.88
-41.69
-50.05
-58.25
-66.86
-76.46
-87.40
-99.89
-114.07
-129.98
-147.20
-164.35
-178.74
-186.68
-184.56
-170.24
-144.12
-109.29
-70.61
-33.05
-0.35
25.66
44.85
57.86
65.45
68.07
66.17
60.48
52.30
43.27
35.03
28.72
24.77
22.83
22.05
21.40
19.93
17.12
12.89
7.61
1.90
-3.65
-8.64
-13.03
-17.10
-21.42
-26.76
-34.02
-44.18
-57.98
-75.32
-94.62
-112.61
-124.73
-126.50
-115.06
-90.53
-56.15
-17.30
20.28
52.26
76.56
93.26
103.57
108.84
109.95
107.37
101.50
93.17
83.65
74.41
66.66
61.01
57.38
55.18
53.60
51.90
49.59
46.38
42.16
36.87
30.50
23.14
15.00
6.42
-2.33
-11.11
-20.19
-30.23
-42.16
-56.58
-73.13
-89.89
-103.45
-109.64
-105.03
-88.28
-60.94
-27.01
8.28
40.23
65.88
84.27
95.93
101.89
102.98
99.73
92.61
82.45
70.63
58.75
48.31
40.24
34.74
31.33
29.13
27.20
24.72
21.19
16.37
10.30
3.21
-4.56
-12.68
-20.87
-29.07
-37.46
-46.47
-56.75
-69.01
-83.68
-100.40
-117.58
-132.28
-140.74
-139.49
-126.60
-102.70
-70.96
-36.20
-3.30
24.12
44.49
57.95
65.54
68.36
67.15
62.42
54.84
45.47
35.65
26.72
19.55
14.45
11.17
9.16
7.79
6.44
4.59
1.80
-2.19
-7.39
-13.60
-20.47
-27.63
-34.89
-42.25
-49.96
-58.47
-68.34
-80.17
-94.13
-109.55
-124.45
-135.63
-139.42
-132.84
-114.89
-87.14
-53.32
-18.17
14.10
40.80
61.02
75.03
83.60
87.27
86.41
81.45
73.26
63.19
52.84
43.62
36.48
31.77
29.40
29.02
30.09
31.98
33.89
34.98
34.50
32.02
27.54
21.40
14.09
6.03
-2.62
-11.91
-22.08
-33.52
-46.69
-61.85
-78.67
-95.66
-110.07
-118.30
-116.95
-104.26
-80.86
-49.87
-15.85
16.66
44.45
66.20
82.07
92.92
99.52
102.28
101.41
97.30
90.73
82.86
74.93
67.85
62.12
57.70
54.27
51.41
48.62
45.47
41.53
36.45
30.07
22.45
13.92
4.90
-4.19
-13.09
-21.84
-30.74
-40.32
-51.29
-64.21
-79.10
-94.98
-109.57
-119.61
-121.75
-113.67
-95.19
-68.45
-37.36
-6.34
20.94
42.36
57.38
66.52
70.65
70.57
66.96
60.48
52.00
42.57
33.24
24.95
18.32
13.62
10.77
9.40
8.96
8.74
8.06
6.36
3.28
-1.25
-7.10
-13.96
-21.46
-29.23
-37.04
-44.86
-53.08
-62.39
-73.57
-86.93
-101.64
-115.46
-125.06
-126.94
-118.70
-100.07
-73.15
-41.77
-10.34
17.54
39.73
55.70
66.02
71.68
73.50
72.09
67.91
61.51
53.69
45.45
37.79
31.52
27.00
24.14
22.49
21.46
20.45
18.99
16.67
13.17
8.31
2.09
-5.26
-13.29
-21.51
-29.61
-37.57
-45.84
-55.21
-66.52
-80.19
-95.53
-110.48
-121.72
-125.59
-119.28
-102.01
-75.49
-43.46
-10.46
19.54
44.08
62.37
74.75
81.97
84.75
83.62
79.18
72.22
63.79
54.96
46.61
39.32
33.30
28.56
24.93
22.16
19.88
17.61
14.80
10.93
5.70
-0.91
-8.62
-16.91
-25.29
-33.43
-41.38
-49.62
-58.99
-70.36
-84.25
-100.21
-116.41
-129.75
-136.43
-133.16
-118.32
-92.73
-59.56
-23.44
11.00
40.27
62.68
78.13
87.49
91.79
91.90
88.46
82.17
73.97
65.01
56.41
49.03
43.23
38.89
35.61
32.89
30.32
27.61
24.55
20.92
16.51
11.14
4.74
-2.59
-10.62
-19.06
-27.74
-36.77
-46.64
-58.11
-71.84
-87.72
-104.34
-118.81
-127.36
-126.47
-114.20
-91.16
-60.39
-26.48
5.97
33.57
54.80
69.64
78.86
83.19
83.11
78.97
71.43
61.76
51.64
42.75
36.27
32.57
31.29
31.58
32.47
33.12
32.90
31.37
28.25
23.51
17.36
10.23
2.60
-5.18
-13.02
-21.15
-30.09
-40.55
-53.21
-68.38
-85.41
-102.26
-115.57
-121.37
-116.37
-99.37
-71.85
-37.74
-2.11
30.43
56.92
76.33
89.12
96.31
98.74
96.89
91.11
81.97
70.53
58.28
46.79
37.33
30.55
26.41
24.30
23.35
22.64
21.46
19.34
16.12
11.81
6.58
0.57
-6.09
-13.39
-21.44
-30.47
-40.86
-53.09
-67.51
-83.81
-100.55
-114.89
-123.04
-121.35
-107.75
-82.73
-49.51
-13.02
21.68
50.91
73.05
88.22
97.48
101.88
102.08
98.49
91.62
82.45
72.28
62.47
54.08
47.59
42.97
39.81
37.53
35.54
33.25
30.08
25.57
19.42
11.58
2.29
-8.02
-18.89
-30.00
-41.27
-52.98
-65.74
-80.24
-96.85
-114.94
-132.43
-145.83
-150.96
-144.33
-124.50
-92.87
-53.45
-11.63
27.50
60.39
85.47
102.75
112.95
116.84
115.07
108.40
97.99
85.48
72.72
61.33
52.35
46.09
42.25
40.18
39.08
38.14
36.63
33.99
29.85
24.18
17.18
9.27
0.87
-7.67
-16.25
-25.10
-34.80
-46.20
-60.08
-76.54
-94.41
-110.87
-121.87
-123.24
-112.12
-88.29
-54.43
-15.43
23.18
56.86
83.05
101.19
111.95
116.32
115.06
108.71
98.02
84.30
69.39
55.23
43.40
34.61
28.69
24.85
22.00
19.15
15.61
11.03
5.46
-0.77
-7.29
-13.82
-20.37
-27.22
-34.87
-43.94
