-0	-0	-0	-0	-0	-0	-0	-0	-0	-0	0	0.01	0.01	-0	-0.03	-0.05	-0.05	0	0.13	0.36	0.66	1.01	1.37	1.72	2.06	2.4	2.79	3.24	3.8	4.42	5.06	5.66	6.2	6.68	7.15	7.68	8.31	9.14	10.09	11.04	11.88	12.56	13.14	13.76	14.65	15.96	17.91	20.32	22.9	25.38	27.58	29.57	31.68	34.32	37.81	42.54	48.15	54.1	59.83	64.97	69.58	74.14	79.34	85.71	93.76	103	112.62	121.73	129.77	136.75	143.3	150.75	157.77	166.64	177.95	191.79	206.97	220.57	228.25	225.36	208.53	176.87	132.76	80.05	23.07	-34.94	-92.44	-149.16	-205.23	-260.37	-313.74	-363.87	-409.83	-450.91	-486.5	-515.74	-537.23	-549.22	-549.96	-538.37	-514.21	-478.67	-433.88	-382.45	-327.02	-269.84	-212.63	-156.66	-102.95	-52.37	-5.9	35.58	71.43	101.35	125.5	144.38	158.69	169.15	176.37	180.75	182.57	182.07	179.51	175.23	169.65	163.18	156.15	148.81
93.76	103	112.62	121.73	129.77	136.75	143.3	150.75	157.77	166.64	177.95	191.79	206.97	220.57	228.25	225.36	208.53	176.87	132.76	80.05	23.07	-34.94	-92.44	-149.16	-205.23	-260.37	-313.74	-363.87	-409.83	-450.91	-486.5	-515.74	-537.23	-549.22	-549.96	-538.37	-514.21	-478.67	-433.88	-382.45	-327.02	-269.84	-212.63	-156.66	-102.95	-52.37	-5.9	35.58	71.43	101.35	125.5	144.38	158.69	169.15	176.37	180.75	182.57	182.07	179.51	175.23	169.65	163.18	156.15	148.81	141.3	133.69	126.02	118.33	110.69	103.16	95.8	88.68	81.83	75.25	68.95	62.95	57.25	51.86	46.78	42.03	37.59	33.45	29.61	26.07	22.81	19.83	17.11	14.67	12.48	10.54	8.83	7.35	6.07	4.97	4.05	3.27	2.62	2.09	1.65	1.3	1.01	0.79	0.61	0.48	0.37	0.29	0.24	0.2	0.18	0.17	0.17	0.19	0.21	0.23	0.26	0.3	0.34	0.38	0.43	0.47	0.52	0.56	0.61	0.67	0.73	0.79	0.86	0.93
141.3	133.69	126.02	118.33	110.69	103.16	95.8	88.68	81.83	75.25	68.95	62.95	57.25	51.86	46.78	42.03	37.59	33.45	29.61	26.07	22.81	19.83	17.11	14.67	12.48	10.54	8.83	7.35	6.07	4.97	4.05	3.27	2.62	2.09	1.65	1.3	1.01	0.79	0.61	0.48	0.37	0.29	0.24	0.2	0.18	0.17	0.17	0.19	0.21	0.23	0.26	0.3	0.34	0.38	0.43	0.47	0.52	0.56	0.61	0.67	0.73	0.79	0.86	0.93	1.01	1.1	1.21	1.32	1.45	1.58	1.74	1.92	2.11	2.32	2.56	2.82	3.11	3.42	3.78	4.16	4.58	5.03	5.52	6.04	6.61	7.22	7.87	8.56	9.3	10.08	10.91	11.78	12.7	13.66	14.69	15.78	16.93	18.14	19.4	20.65	21.87	22.96	23.83	24.36	24.43	23.94	22.79	20.93	18.37	15.18	11.4	7.23	2.85	-1.52	-5.67	-9.4	-12.58	-15.1	-16.95	-18.16	-18.79	-18.96	-18.75	-18.24	-17.51	-16.62	-15.62	-14.55
1.01	1.1	1.21	1.32	1.45	1.58	1.74	1.92	2.11	2.32	2.56	2.82	3.11	3.42	3.78	4.16	4.58	5.03	5.52	6.04	6.61	7.22	7.87	8.56	9.3	10.08	10.91	11.78	12.7	13.66	14.69	15.78	16.93	18.14	19.4	20.65	21.87	22.96	23.83	24.36	24.43	23.94	22.79	20.93	18.37	15.18	11.4	7.23	2.85	-1.52	-5.67	-9.4	-12.58	-15.1	-16.95	-18.16	-18.79	-18.96	-18.75	-18.24	-17.51	-16.62	-15.62	-14.55	-13.43	-12.24	-10.98	-9.59	-8.02	-6.21	-4.13	-1.85	0.56	2.97	5.36	7.57	9.6	11.53	13.48	15.51	17.59	19.62	21.5	23.24	24.66	25.88	27.15	28.73	30.73	33.02	35.25	37.07	38.33	38.65	38.24	37.57	37.17	37.32	37.84	38.21	37.8	36.27	33.04	28.25	22.4	15.99	9.05	0.95	-9.82	-25.75	-44.98	-67.9	-94.77	-125.06	-156.79	-186.39	-209.25	-221.01	-219.04	-203.33	-177.29	-145.66	-113.12	-83.08	-57.21	-35.85	-18.7	-5.43
-13.43	-12.24	-10.98	-9.59	-8.02	-6.21	-4.13	-1.85	0.56	2.97	5.36	7.57	9.6	11.53	13.48	15.51	17.59	19.62	21.5	23.24	24.66	25.88	27.15	28.73	30.73	33.02	35.25	37.07	38.33	38.65	38.24	37.57	37.17	37.32	37.84	38.21	37.8	36.27	33.04	28.25	22.4	15.99	9.05	0.95	-9.82	-25.75	-44.98	-67.9	-94.77	-125.06	-156.79	-186.39	-209.25	-221.01	-219.04	-203.33	-177.29	-145.66	-113.12	-83.08	-57.21	-35.85	-18.7	-5.43	4.27	10.31	13.29	14.44	15.31	17.24	20.94	26.26	32.26	37.75	41.37	42.57	41.56	39.13	36.12	33.02	29.88	26.38	22.22	17.1	10.98	3.96	-3.88	-12.42	-21.31	-29.77	-36.55	-40.2	-39.56	-34.17	-24.42	-11.56	2.7	16.57	28.51	37.54	43.22	45.72	45.56	43.47	40.14	36.12	31.79	27.46	23.45	20.17	18	17.16	17.53	18.68	19.95	20.66	20.28	18.63	15.83	12.31	8.53	4.87	1.41	-2.04	-5.85	-10.48	-16.29	-23.41
4.27	10.31	13.29	14.44	15.31	17.24	20.94	26.26	32.26	37.75	41.37	42.57	41.56	39.13	36.12	33.02	29.88	26.38	22.22	17.1	10.98	3.96	-3.88	-12.42	-21.31	-29.77	-36.55	-40.2	-39.56	-34.17	-24.42	-11.56	2.7	16.57	28.51	37.54	43.22	45.72	45.56	43.47	40.14	36.12	31.79	27.46	23.45	20.17	18	17.16	17.53	18.68	19.95	20.66	20.28	18.63	15.83	12.31	8.53	4.87	1.41	-2.04	-5.85	-10.48	-16.29	-23.41	-31.62	-40.25	-48.11	-53.58	-55.06	-51.44	-42.62	-29.64	-14.44	0.72	14	24.38	31.76	36.64	39.66	41.32	41.86	41.34	39.9	37.8	35.43	33.3	31.82	31.18	31.31	31.84	32.23	31.96	30.71	28.42	25.31	21.64	17.66	13.48	9.07	4.4	-0.53	-5.69	-11.13	-17.01	-23.55	-30.75	-38.2	-44.88	-49.37	-50.31	-46.89	-39.22	-28.32	-15.82	-3.48	7.29	15.71	21.58	25.21	27.11	27.84	27.81	27.25	26.22	24.72	22.76	20.49	18.16
-31.62	-40.25	-48.11	-53.58	-55.06	-51.44	-42.62	-29.64	-14.44	0.72	14	24.38	31.76	36.64	39.66	41.32	41.86	41.34	39.9	37.8	35.43	33.3	31.82	31.18	31.31	31.84	32.23	31.96	30.71	28.42	25.31	21.64	17.66	13.48	9.07	4.4	-0.53	-5.69	-11.13	-17.01	-23.55	-30.75	-38.2	-44.88	-49.37	-50.31	-46.89	-39.22	-28.32	-15.82	-3.48	7.29	15.71	21.58	25.21	27.11	27.84	27.81	27.25	26.22	24.72	22.76	20.49	18.16	16.05	14.4	13.26	12.48	11.77	10.78	9.21	6.88	3.8	0.11	-3.97	-8.18	-12.33	-16.3	-20.1	-23.93	-28.17	-33.27	-39.51	-46.76	-54.26	-60.61	-64.17	-63.53	-58.04	-48.04	-34.82	-20.15	-5.72	7.22	18.06	26.65	33.11	37.56	40.07	40.73	39.73	37.42	34.32	31	27.96	25.56	23.96	23.11	22.79	22.68	22.43	21.76	20.5	18.58	15.99	12.77	9.01	4.78	0.18	-4.77	-10.09	-15.84	-22.1	-28.75	-35.38	-41.23	-45.19	-46.13
16.05	14.4	13.26	12.48	11.77	10.78	9.21	6.88	3.8	0.11	-3.97	-8.18	-12.33	-16.3	-20.1	-23.93	-28.17	-33.27	-39.51	-46.76	-54.26	-60.61	-64.17	-63.53	-58.04	-48.04	-34.82	-20.15	-5.72	7.22	18.06	26.65	33.11	37.56	40.07	40.73	39.73	37.42	34.32	31	27.96	25.56	23.96	23.11	22.79	22.68	22.43	21.76	20.5	18.58	15.99	12.77	9.01	4.78	0.18	-4.77	-10.09	-15.84	-22.1	-28.75	-35.38	-41.23	-45.19	-46.13	-43.13	-35.81	-24.57	-10.48	4.89	19.97	33.55	45.03	54.37	61.91	67.98	72.73	76.17	78.27	79.24	79.57	79.96	81.07	83.24	86.48	90.43	94.83	99.66	105.33	112.33	120.85	130.29	139.27	145.98	148.93	147.65	142.78	135.74	127.95	119.93	111.02	99.54	83.59	61.94	34.73	3.61	-28.7	-59.12	-84.84	-103.71	-114.26	-115.7	-108.05	-92.65	-72.4	-51.59	-34.68	-24.86	-22.65	-25.82	-30.55	-33.32	-32.53	-29.03	-25.16	-23.25	-24.28	-27.5	-31.13
-43.13	-35.81	-24.57	-10.48	4.89	19.97	33.55	45.03	54.37	61.91	67.98	72.73	76.17	78.27	79.24	79.57	79.96	81.07	83.24	86.48	90.43	94.83	99.66	105.33	112.33	120.85	130.29	139.27	145.98	148.93	147.65	142.78	135.74	127.95	119.93	111.02	99.54	83.59	61.94	34.73	3.61	-28.7	-59.12	-84.84	-103.71	-114.26	-115.7	-108.05	-92.65	-72.4	-51.59	-34.68	-24.86	-22.65	-25.82	-30.55	-33.32	-32.53	-29.03	-25.16	-23.25	-24.28	-27.5	-31.13	-33.51	-34	-33.19	-32.46	-33.11	-35.75	-40.1	-45.17	-49.75	-53	-54.62	-54.89	-54.42	-53.79	-53.37	-53.18	-53.05	-52.73	-52.06	-51.02	-49.74	-48.5	-47.6	-47.27	-47.67	-48.85	-50.7	-52.9	-54.66	-54.58	-50.96	-42.46	-28.98	-12.3	4.19	16.62	22.16	20.19	12.44	2.05	-7.88	-15.49	-20.5	-23.59	-25.56	-26.62	-26.41	-24.49	-20.86	-16.27	-11.9	-8.88	-7.74	-8.24	-9.56	-10.69	-11.02	-10.59	-10.04	-10.25	-11.96	-15.37	-20.07	-25.19
-33.51	-34	-33.19	-32.46	-33.11	-35.75	-40.1	-45.17	-49.75	-53	-54.62	-54.89	-54.42	-53.79	-53.37	-53.18	-53.05	-52.73	-52.06	-51.02	-49.74	-48.5	-47.6	-47.27	-47.67	-48.85	-50.7	-52.9	-54.66	-54.58	-50.96	-42.46	-28.98	-12.3	4.19	16.62	22.16	20.19	12.44	2.05	-7.88	-15.49	-20.5	-23.59	-25.56	-26.62	-26.41	-24.49	-20.86	-16.27	-11.9	-8.88	-7.74	-8.24	-9.56	-10.69	-11.02	-10.59	-10.04	-10.25	-11.96	-15.37	-20.07	-25.19	-29.77	-33.06	-34.76	-35.24	-35.37	-36.31	-39.13	-44.38	-51.98	-61.19	-70.77	-79.26	-85.26	-87.6	-85.6	-79.14	-68.72	-55.31	-40.23	-24.89	-10.64	1.4	10.54	16.62	20.01	21.51	22.07	22.47	23.16	24.21	25.52	27.02	28.79	30.97	33.59	36.5	39.29	41.55	42.91	43.21	42.53	41.34	40.59	41.6	45.82	54.27	67.25	84.06	103.07	121.92	137.77	147.72	149.45	142.07	126.51	105.42	82.26	60.12	40.76	24.38	10.19	-2.63	-14.27	-24.27
-29.77	-33.06	-34.76	-35.24	-35.37	-36.31	-39.13	-44.38	-51.98	-61.19	-70.77	-79.26	-85.26	-87.6	-85.6	-79.14	-68.72	-55.31	-40.23	-24.89	-10.64	1.4	10.54	16.62	20.01	21.51	22.07	22.47	23.16	24.21	25.52	27.02	28.79	30.97	33.59	36.5	39.29	41.55	42.91	43.21	42.53	41.34	40.59	41.6	45.82	54.27	67.25	84.06	103.07	121.92	137.77	147.72	149.45	142.07	126.51	105.42	82.26	60.12	40.76	24.38	10.19	-2.63	-14.27	-24.27	-31.98	-37.21	-40.36	-42.15	-43.14	-43.46	-42.88	-41.14	-38.26	-34.6	-30.74	-27.25	-24.45	-22.33	-20.53	-18.52	-15.86	-12.46	-8.74	-5.44	-3.35	-2.85	-3.67	-5	-5.8	-5.33	-3.59	-1.29	0.36	0.22	-2.1	-6.04	-10.09	-12.48	-12.03	-8.81	-4.39	-1.38	-2.35	-8.81	-20.57	-35.83	-51.89	-66.07	-76.34	-81.6	-81.53	-76.46	-67.29	-55.44	-42.71	-30.95	-21.57	-15.04	-10.95	-8.33	-6.17	-3.93	-1.67	0.21	1.37	1.76	1.68	1.53
-31.98	-37.21	-40.36	-42.15	-43.14	-43.46	-42.88	-41.14	-38.26	-34.6	-30.74	-27.25	-24.45	-22.33	-20.53	-18.52	-15.86	-12.46	-8.74	-5.44	-3.35	-2.85	-3.67	-5	-5.8	-5.33	-3.59	-1.29	0.36	0.22	-2.1	-6.04	-10.09	-12.48	-12.03	-8.81	-4.39	-1.38	-2.35	-8.81	-20.57	-35.83	-51.89	-66.07	-76.34	-81.6	-81.53	-76.46	-67.29	-55.44	-42.71	-30.95	-21.57	-15.04	-10.95	-8.33	-6.17	-3.93	-1.67	0.21	1.37	1.76	1.68	1.53	1.62	1.96	2.48	3.08	3.83	4.9	6.4	8.22	10.07	11.53	12.29	12.3	11.72	10.81	9.78	8.68	7.41	5.82	3.82	1.47	-1.07	-3.55	-5.8	-7.86	-10.09	-13.05	-17.3	-23.08	-30.14	-37.69	-44.56	-49.49	-51.44	-49.77	-44.51	-36.31	-26.36	-16.12	-6.91	0.4	5.6	8.98	11.09	12.3	12.74	12.34	11.18	9.65	8.45	8.29	9.53	11.9	14.67	16.91	17.91	17.45	15.75	13.23	10.35	7.41	4.6	2.12	0.22	-0.89
1.62	1.96	2.48	3.08	3.83	4.9	6.4	8.22	10.07	11.53	12.29	12.3	11.72	10.81	9.78	8.68	7.41	5.82	3.82	1.47	-1.07	-3.55	-5.8	-7.86	-10.09	-13.05	-17.3	-23.08	-30.14	-37.69	-44.56	-49.49	-51.44	-49.77	-44.51	-36.31	-26.36	-16.12	-6.91	0.4	5.6	8.98	11.09	12.3	12.74	12.34	11.18	9.65	8.45	8.29	9.53	11.9	14.67	16.91	17.91	17.45	15.75	13.23	10.35	7.41	4.6	2.12	0.22	-0.89	-1.23	-1.16	-1.35	-2.52	-5.16	-9.25	-14.31	-19.61	-24.51	-28.7	-32.34	-35.84	-39.51	-43.25	-46.39	-47.97	-47.13	-43.59	-37.88	-31.17	-24.81	-19.77	-16.33	-14.07	-12.27	-10.31	-7.98	-5.48	-3.12	-0.99	1.06	3.4	6.27	9.53	12.72	15.16	16.27	15.89	14.32	12.26	10.47	9.54	9.67	10.63	11.84	12.59	12.29	10.62	7.65	3.75	-0.57	-4.86	-8.8	-12.37	-15.84	-19.67	-24.46	-30.73	-38.75	-48.27	-58.35	-67.42	-73.63	-75.39
-1.23	-1.16	-1.35	-2.52	-5.16	-9.25	-14.31	-19.61	-24.51	-28.7	-32.34	-35.84	-39.51	-43.25	-46.39	-47.97	-47.13	-43.59	-37.88	-31.17	-24.81	-19.77	-16.33	-14.07	-12.27	-10.31	-7.98	-5.48	-3.12	-0.99	1.06	3.4	6.27	9.53	12.72	15.16	16.27	15.89	14.32	12.26	10.47	9.54	9.67	10.63	11.84	12.59	12.29	10.62	7.65	3.75	-0.57	-4.86	-8.8	-12.37	-15.84	-19.67	-24.46	-30.73	-38.75	-48.27	-58.35	-67.42	-73.63	-75.39	-71.94	-63.58	-51.61	-37.81	-23.92	-11.17	-0.15	9.04	16.52	22.4	26.72	29.5	30.92	31.3	31.05	30.6	30.18	29.91	29.72	29.55	29.36	29.21	29.23	29.52	30.08	30.77	31.29	31.21	30.07	27.49	23.4	18.08	12.23	6.69	2.19	-0.98	-3.14	-5.07	-7.73	-11.87	-17.83	-25.5	-34.37	-43.56	-51.94	-58.15	-60.8	-58.87	-52.06	-41.04	-27.3	-12.76	0.85	12.46	21.75	28.99	34.64	39.05	42.31	44.43	45.5	45.85	45.91	46.08
-71.94	-63.58	-51.61	-37.81	-23.92	-11.17	-0.15	9.04	16.52	22.4	26.72	29.5	30.92	31.3	31.05	30.6	30.18	29.91	29.72	29.55	29.36	29.21	29.23	29.52	30.08	30.77	31.29	31.21	30.07	27.49	23.4	18.08	12.23	6.69	2.19	-0.98	-3.14	-5.07	-7.73	-11.87	-17.83	-25.5	-34.37	-43.56	-51.94	-58.15	-60.8	-58.87	-52.06	-41.04	-27.3	-12.76	0.85	12.46	21.75	28.99	34.64	39.05	42.31	44.43	45.5	45.85	45.91	46.08	46.51	46.98	47.06	46.37	44.78	42.53	40.12	38	36.44	35.27	34.02	32.11	29.17	25.19	20.55	15.91	11.85	8.65	6.07	3.46	-0.05	-5.23	-12.53	-21.88	-32.75	-44.31	-55.53	-65.25	-72.31	-75.69	-74.61	-68.91	-59.01	-46.03	-31.51	-17.13	-4.38	5.62	12.26	15.37	15.24	12.48	7.88	2.25	-3.8	-9.88	-15.8	-21.47	-26.79	-31.79	-36.61	-41.6	-47.12	-53.13	-59.05	-63.84	-66.6	-66.99	-65.56	-63.42	-61.55	-60.2	-58.84	-56.54
46.51	46.98	47.06	46.37	44.78	42.53	40.12	38	36.44	35.27	34.02	32.11	29.17	25.19	20.55	15.91	11.85	8.65	6.07	3.46	-0.05	-5.23	-12.53	-21.88	-32.75	-44.31	-55.53	-65.25	-72.31	-75.69	-74.61	-68.91	-59.01	-46.03	-31.51	-17.13	-4.38	5.62	12.26	15.37	15.24	12.48	7.88	2.25	-3.8	-9.88	-15.8	-21.47	-26.79	-31.79	-36.61	-41.6	-47.12	-53.13	-59.05	-63.84	-66.6	-66.99	-65.56	-63.42	-61.55	-60.2	-58.84	-56.54	-52.77	-48.11	-44.47	-44.5	-50.35	-62.35	-78.28	-93.78	-103.71	-104.05	-93.33	-72.81	-45.5	-14.34	18.8	53.23	88.39	122.81	153.95	178.99	195.97	204.71	206.71	204.17	198.67	190.49	178.91	163.28	144.21	123.83	104.95	89.43	77.11	65.91	52.95	36.41	16.4	-5.26	-26.23	-44.92	-60.97	-74.77	-86.66	-96.68	-105.04	-112.96	-122.88	-137.63	-158.85	-185.72	-214.82	-241.35	-261.12	-272.09	-274.77	-271.2	-263.22	-251.13	-233.43	-207.73	-172.4	-127.97	-77.45	-25.21
-52.77	-48.11	-44.47	-44.5	-50.35	-62.35	-78.28	-93.78	-103.71	-104.05	-93.33	-72.81	-45.5	-14.34	18.8	53.23	88.39	122.81	153.95	178.99	195.97	204.71	206.71	204.17	198.67	190.49	178.91	163.28	144.21	123.83	104.95	89.43	77.11	65.91	52.95	36.41	16.4	-5.26	-26.23	-44.92	-60.97	-74.77	-86.66	-96.68	-105.04	-112.96	-122.88	-137.63	-158.85	-185.72	-214.82	-241.35	-261.12	-272.09	-274.77	-271.2	-263.22	-251.13	-233.43	-207.73	-172.4	-127.97	-77.45	-25.21	24.6	69.35	108.15	141.14	168.51	190.22	206.28	217.29	224.65	230.26	235.92	242.76	250.98	259.98	268.62	275.47	279.16	278.7	273.85	265.16	253.89	241.38	228.37	214.6	198.89	179.91	157.04	131.02	104.09	79.56	60.86	50.68	49.97	57.31	69.26	81.23	88.96	89.84	83.65	72.2	58.38	45.22	35.02	29.11	27.73	30.19	35.05	40.36	44.25	45.56	44.19	41.06	37.47	34.32	31.77	29.51	27.22	25.01	23.34	22.52	22.46	22.72	22.9	23.03
24.6	69.35	108.15	141.14	168.51	190.22	206.28	217.29	224.65	230.26	235.92	242.76	250.98	259.98	268.62	275.47	279.16	278.7	273.85	265.16	253.89	241.38	228.37	214.6	198.89	179.91	157.04	131.02	104.09	79.56	60.86	50.68	49.97	57.31	69.26	81.23	88.96	89.84	83.65	72.2	58.38	45.22	35.02	29.11	27.73	30.19	35.05	40.36	44.25	45.56	44.19	41.06	37.47	34.32	31.77	29.51	27.22	25.01	23.34	22.52	22.46	22.72	22.9	23.03	23.4	23.99	23.96	21.56	14.72	1.94	-16.95	-40.66	-67.12	-94.26	-120.5	-144.8	-166.27	-183.86	-196.26	-202.26	-201.25	-193.5	-180.19	-163.05	-143.82	-123.91	-104.29	-85.64	-68.77	-54.67	-44.41	-38.71	-37.53	-39.91	-44.09	-47.98	-49.78	-48.61	-44.64	-39.01	-33.3	-29.01	-27.03	-27.44	-29.64	-32.74	-36.13	-39.75	-44.15	-50.14	-58.26	-68.49	-80.14	-92.02	-102.82	-111.41	-117.03	-119.36	-118.35	-113.9	-105.78	-93.68	-77.52	-57.82	-35.94	-13.88	6.29	23.22
23.4	23.99	23.96	21.56	14.72	1.94	-16.95	-40.66	-67.12	-94.26	-120.5	-144.8	-166.27	-183.86	-196.26	-202.26	-201.25	-193.5	-180.19	-163.05	-143.82	-123.91	-104.29	-85.64	-68.77	-54.67	-44.41	-38.71	-37.53	-39.91	-44.09	-47.98	-49.78	-48.61	-44.64	-39.01	-33.3	-29.01	-27.03	-27.44	-29.64	-32.74	-36.13	-39.75	-44.15	-50.14	-58.26	-68.49	-80.14	-92.02	-102.82	-111.41	-117.03	-119.36	-118.35	-113.9	-105.78	-93.68	-77.52	-57.82	-35.94	-13.88	6.29	23.22	36.67	47.58	57.3	66.87	76.34	84.85	91.2	94.6	95.15	93.82	91.96	90.65	90.31	90.66	90.89	90.08	87.63	83.64	79.01	75.26	73.83	75.35	79.2	83.64	86.51	86.02	81.26	72.08	58.62	40.96	19.27	-5.64	-31.91	-56.9	-78.03	-93.98	-105.11	-112.92	-118.8	-123.02	-124.54	-121.81	-113.98	-101.54	-86.22	-70.11	-54.73	-40.68	-27.77	-15.63	-4.23	5.99	14.37	20.41	24.04	25.65	25.91	25.55	25.16	25.1	25.51	26.31	27.3	28.31
36.67	47.58	57.3	66.87	76.34	84.85	91.2	94.6	95.15	93.82	91.96	90.65	90.31	90.66	90.89	90.08	87.63	83.64	79.01	75.26	73.83	75.35	79.2	83.64	86.51	86.02	81.26	72.08	58.62	40.96	19.27	-5.64	-31.91	-56.9	-78.03	-93.98	-105.11	-112.92	-118.8	-123.02	-124.54	-121.81	-113.98	-101.54	-86.22	-70.11	-54.73	-40.68	-27.77	-15.63	-4.23	5.99	14.37	20.41	24.04	25.65	25.91	25.55	25.16	25.1	25.51	26.31	27.3	28.31	29.2	29.95	30.55	30.93	30.94	30.4	29.17	27.25	24.8	22.11	19.39	16.68	13.77	10.35	6.18	1.3	-3.91	-9.01	-13.63	-17.81	-21.93	-26.62	-32.44	-39.58	-47.65	-55.71	-62.32	-66.03	-65.72	-61.03	-52.44	-41.16	-28.66	-16.27	-4.84	5.33	14.36	22.47	29.75	36	40.78	43.66	44.37	43.01	40.07	36.33	32.62	29.57	27.48	26.32	25.85	25.8	25.98	26.16	26.12	25.53	24.02	21.36	17.68	13.43	9.26	5.73	2.96	0.56
29.2	29.95	30.55	30.93	30.94	30.4	29.17	27.25	24.8	22.11	19.39	16.68	13.77	10.35	6.18	1.3	-3.91	-9.01	-13.63	-17.81	-21.93	-26.62	-32.44	-39.58	-47.65	-55.71	-62.32	-66.03	-65.72	-61.03	-52.44	-41.16	-28.66	-16.27	-4.84	5.33	14.36	22.47	29.75	36	40.78	43.66	44.37	43.01	40.07	36.33	32.62	29.57	27.48	26.32	25.85	25.8	25.98	26.16	26.12	25.53	24.02	21.36	17.68	13.43	9.26	5.73	2.96	0.56	-2.34	-6.6	-12.77	-20.77	-29.96	-39.33	-47.9	-55.06	-60.73	-65.34	-69.72	-74.77	-81.14	-88.96	-97.7	-106.22	-113.06	-116.83	-116.69	-112.64	-105.55	-96.87	-88.21	-80.71	-74.64	-69.29	-63.13	-54.39	-41.81	-25.13	-5.28	16.07	37.13	56.75	74.53	90.66	105.34	118.48	129.55	138.03	143.69	146.77	147.87	147.64	146.5	144.6	141.98	138.63	134.55	129.59	123.48	115.85	106.47	95.45	83.31	70.88	59.08	48.61	39.82	32.64	26.62	21.13	15.53	9.45
-2.34	-6.6	-12.77	-20.77	-29.96	-39.33	-47.9	-55.06	-60.73	-65.34	-69.72	-74.77	-81.14	-88.96	-97.7	-106.22	-113.06	-116.83	-116.69	-112.64	-105.55	-96.87	-88.21	-80.71	-74.64	-69.29	-63.13	-54.39	-41.81	-25.13	-5.28	16.07	37.13	56.75	74.53	90.66	105.34	118.48	129.55	138.03	143.69	146.77	147.87	147.64	146.5	144.6	141.98	138.63	134.55	129.59	123.48	115.85	106.47	95.45	83.31	70.88	59.08	48.61	39.82	32.64	26.62	21.13	15.53	9.45	2.92	-3.54	-8.94	-12.07	-11.72	-7.15	1.47	12.9	24.91	34.92	40.88	41.85	38.26	31.46	22.92	13.64	3.92	-6.32	-16.96	-27.33	-36.31	-42.75	-46.06	-46.46	-44.79	-42.09	-39.09	-36.05	-32.86	-29.38	-25.67	-22.14	-19.29	-17.5	-16.81	-16.89	-17.24	-17.4	-17.32	-17.24	-17.68	-19.17	-21.94	-25.85	-30.36	-34.74	-38.37	-40.95	-42.68	-44.2	-46.36	-49.89	-55.08	-61.52	-68.1	-73.28	-75.49	-73.66	-67.64	-58.16	-46.58	-34.39	-22.72	-12.18
2.92	-3.54	-8.94	-12.07	-11.72	-7.15	1.47	12.9	24.91	34.92	40.88	41.85	38.26	31.46	22.92	13.64	3.92	-6.32	-16.96	-27.33	-36.31	-42.75	-46.06	-46.46	-44.79	-42.09	-39.09	-36.05	-32.86	-29.38	-25.67	-22.14	-19.29	-17.5	-16.81	-16.89	-17.24	-17.4	-17.32	-17.24	-17.68	-19.17	-21.94	-25.85	-30.36	-34.74	-38.37	-40.95	-42.68	-44.2	-46.36	-49.89	-55.08	-61.52	-68.1	-73.28	-75.49	-73.66	-67.64	-58.16	-46.58	-34.39	-22.72	-12.18	-2.87	5.23	12.1	17.59	21.56	24.06	25.33	25.77	25.75	25.51	25.13	24.66	24.2	23.95	24.08	24.71	25.75	26.94	27.92	28.37	28.09	27.07	25.44	23.38	21.07	18.62	16.02	13.22	10.12	6.63	2.74	-1.49	-5.96	-10.52	-15.07	-19.62	-24.22	-29.09	-34.55	-40.85	-48.03	-55.64	-62.71	-67.86	-69.72	-67.36	-60.78	-50.86	-39.08	-27.04	-15.94	-6.37	1.62	8.26	13.76	18.21	21.54	23.74	24.88	25.24	25.12	24.84	24.58	24.39
-2.87	5.23	12.1	17.59	21.56	24.06	25.33	25.77	25.75	25.51	25.13	24.66	24.2	23.95	24.08	24.71	25.75	26.94	27.92	28.37	28.09	27.07	25.44	23.38	21.07	18.62	16.02	13.22	10.12	6.63	2.74	-1.49	-5.96	-10.52	-15.07	-19.62	-24.22	-29.09	-34.55	-40.85	-48.03	-55.64	-62.71	-67.86	-69.72	-67.36	-60.78	-50.86	-39.08	-27.04	-15.94	-6.37	1.62	8.26	13.76	18.21	21.54	23.74	24.88	25.24	25.12	24.84	24.58	24.39	24.24	24.11	24.06	24.11	24.28	24.49	24.59	24.39	23.8	22.78	21.39	19.66	17.55	14.99	11.93	8.35	4.35	0.07	-4.29	-8.57	-12.62	-16.41	-20.05	-23.87	-28.36	-34.03	-41.1	-49.19	-57.21	-63.52	-66.49	-64.98	-58.84	-48.89	-36.64	-23.76	-11.58	-0.89	8.05	15.32	21.11	25.5	28.52	30.11	30.31	29.33	27.63	25.78	24.35	23.65	23.73	24.32	25.1	25.81	26.36	26.82	27.23	27.48	27.24	26.08	23.72	20.07	15.44	10.35
24.24	24.11	24.06	24.11	24.28	24.49	24.59	24.39	23.8	22.78	21.39	19.66	17.55	14.99	11.93	8.35	4.35	0.07	-4.29	-8.57	-12.62	-16.41	-20.05	-23.87	-28.36	-34.03	-41.1	-49.19	-57.21	-63.52	-66.49	-64.98	-58.84	-48.89	-36.64	-23.76	-11.58	-0.89	8.05	15.32	21.11	25.5	28.52	30.11	30.31	29.33	27.63	25.78	24.35	23.65	23.73	24.32	25.1	25.81	26.36	26.82	27.23	27.48	27.24	26.08	23.72	20.07	15.44	10.35	5.37	0.87	-3.03	-6.56	-10.11	-14.08	-18.79	-24.42	-31	-38.35	-45.91	-52.67	-57.3	-58.48	-55.4	-48.12	-37.62	-25.5	-13.39	-2.45	6.8	14.39	20.48	25.07	27.89	28.64	27.3	24.3	20.53	17	14.53	13.42	13.45	14.08	14.81	15.36	15.73	16.08	16.48	16.79	16.67	15.66	13.45	9.92	5.24	-0.21	-5.97	-11.58	-16.72	-21.37	-25.8	-30.62	-36.51	-43.93	-52.77	-62.2	-70.7	-76.44	-77.87	-74.22	-65.72	-53.55	-39.34	-24.78
5.37	0.87	-3.03	-6.56	-10.11	-14.08	-18.79	-24.42	-31	-38.35	-45.91	-52.67	-57.3	-58.48	-55.4	-48.12	-37.62	-25.5	-13.39	-2.45	6.8	14.39	20.48	25.07	27.89	28.64	27.3	24.3	20.53	17	14.53	13.42	13.45	14.08	14.81	15.36	15.73	16.08	16.48	16.79	16.67	15.66	13.45	9.92	5.24	-0.21	-5.97	-11.58	-16.72	-21.37	-25.8	-30.62	-36.51	-43.93	-52.77	-62.2	-70.7	-76.44	-77.87	-74.22	-65.72	-53.55	-39.34	-24.78	-11.11	0.96	11.16	19.52	26.1	31.02	34.33	36.18	36.8	36.53	35.73	34.78	33.9	33.18	32.5	31.71	30.71	29.56	28.48	27.71	27.31	27.07	26.52	25.08	22.35	18.27	13.14	7.53	2.03	-2.95	-7.28	-11.2	-15.18	-19.81	-25.62	-32.98	-41.77	-51.29	-60.3	-67.17	-70.34	-68.82	-62.54	-52.39	-39.91	-26.78	-14.3	-3.17	6.5	14.88	22.11	28.13	32.71	35.58	36.68	36.27	34.92	33.29	31.96	31.21	30.99	31.07	31.16	31.09
-11.11	0.96	11.16	19.52	26.1	31.02	34.33	36.18	36.8	36.53	35.73	34.78	33.9	33.18	32.5	31.71	30.71	29.56	28.48	27.71	27.31	27.07	26.52	25.08	22.35	18.27	13.14	7.53	2.03	-2.95	-7.28	-11.2	-15.18	-19.81	-25.62	-32.98	-41.77	-51.29	-60.3	-67.17	-70.34	-68.82	-62.54	-52.39	-39.91	-26.78	-14.3	-3.17	6.5	14.88	22.11	28.13	32.71	35.58	36.68	36.27	34.92	33.29	31.96	31.21	30.99	31.07	31.16	31.09	30.81	30.36	29.77	28.96	27.77	25.98	23.49	20.26	16.39	12.09	7.61	3.22	-0.88	-4.56	-7.85	-10.91	-14.01	-17.56	-21.99	-27.7	-34.8	-42.87	-50.78	-56.85	-59.36	-57.18	-50.32	-39.94	-27.94	-16.17	-5.77	3.03	10.58	17.19	22.68	26.47	27.99	27.27	25.13	22.88	21.73	22.24	24.14	26.62	28.81	30.21	30.75	30.69	30.25	29.52	28.48	27.15	25.68	24.3	23.16	22.14	20.92	19.13	16.54	13.18	9.24	4.98	0.47	-4.38
30.81	30.36	29.77	28.96	27.77	25.98	23.49	20.26	16.39	12.09	7.61	3.22	-0.88	-4.56	-7.85	-10.91	-14.01	-17.56	-21.99	-27.7	-34.8	-42.87	-50.78	-56.85	-59.36	-57.18	-50.32	-39.94	-27.94	-16.17	-5.77	3.03	10.58	17.19	22.68	26.47	27.99	27.27	25.13	22.88	21.73	22.24	24.14	26.62	28.81	30.21	30.75	30.69	30.25	29.52	28.48	27.15	25.68	24.3	23.16	22.14	20.92	19.13	16.54	13.18	9.24	4.98	0.47	-4.38	-9.82	-16.09	-23.32	-31.43	-40.03	-48.38	-55.35	-59.66	-60.14	-56.23	-48.23	-37.23	-24.8	-12.48	-1.4	7.9	15.31	20.91	24.88	27.36	28.57	28.84	28.55	28	27.37	26.72	25.99	25.17	24.3	23.55	23.1	23.09	23.52	24.13	24.52	24.18	22.75	20.16	16.67	12.75	8.91	5.43	2.24	-1.04	-4.99	-10.14	-16.76	-24.77	-33.63	-42.43	-49.88	-54.63	-55.54	-52.05	-44.45	-33.84	-21.85	-10.06	0.4	9.12	16.2	21.94	26.4	29.35
-9.82	-16.09	-23.32	-31.43	-40.03	-48.38	-55.35	-59.66	-60.14	-56.23	-48.23	-37.23	-24.8	-12.48	-1.4	7.9	15.31	20.91	24.88	27.36	28.57	28.84	28.55	28	27.37	26.72	25.99	25.17	24.3	23.55	23.1	23.09	23.52	24.13	24.52	24.18	22.75	20.16	16.67	12.75	8.91	5.43	2.24	-1.04	-4.99	-10.14	-16.76	-24.77	-33.63	-42.43	-49.88	-54.63	-55.54	-52.05	-44.45	-33.84	-21.85	-10.06	0.4	9.12	16.2	21.94	26.4	29.35	30.46	29.61	27.22	24.15	21.43	19.77	19.33	19.68	20.14	20.14	19.53	18.54	17.6	16.94	16.43	15.52	13.52	9.95	4.83	-1.37	-7.85	-13.84	-18.98	-23.35	-27.39	-31.75	-36.94	-43.23	-50.5	-58.18	-65.26	-70.45	-72.43	-70.3	-63.86	-53.76	-41.32	-28.12	-15.49	-4.24	5.38	13.49	20.25	25.71	29.77	32.32	33.44	33.41	32.72	31.84	31.11	30.62	30.27	29.89	29.38	28.76	28.16	27.67	27.26	26.69	25.57	23.5	20.25	15.85
30.46	29.61	27.22	24.15	21.43	19.77	19.33	19.68	20.14	20.14	19.53	18.54	17.6	16.94	16.43	15.52	13.52	9.95	4.83	-1.37	-7.85	-13.84	-18.98	-23.35	-27.39	-31.75	-36.94	-43.23	-50.5	-58.18	-65.26	-70.45	-72.43	-70.3	-63.86	-53.76	-41.32	-28.12	-15.49	-4.24	5.38	13.49	20.25	25.71	29.77	32.32	33.44	33.41	32.72	31.84	31.11	30.62	30.27	29.89	29.38	28.76	28.16	27.67	27.26	26.69	25.57	23.5	20.25	15.85	10.66	5.19	-0.08	-4.85	-9.14	-13.22	-17.57	-22.71	-29.04	-36.68	-45.31	-54.11	-61.75	-66.73	-67.74	-64.11	-56.12	-44.89	-32.05	-19.21	-7.54	2.46	10.81	17.8	23.67	28.49	32.15	34.58	35.8	36.01	35.6	34.94	34.4	34.19	34.44	35.24	36.67	38.74	41.38	44.26	46.74	47.96	47.06	43.52	37.38	29.31	20.41	11.83	4.45	-1.42	-6	-9.88	-13.86	-18.7	-24.95	-32.78	-41.83	-51.05	-58.91	-63.67	-64	-59.44	-50.57	-38.83
10.66	5.19	-0.08	-4.85	-9.14	-13.22	-17.57	-22.71	-29.04	-36.68	-45.31	-54.11	-61.75	-66.73	-67.74	-64.11	-56.12	-44.89	-32.05	-19.21	-7.54	2.46	10.81	17.8	23.67	28.49	32.15	34.58	35.8	36.01	35.6	34.94	34.4	34.19	34.44	35.24	36.67	38.74	41.38	44.26	46.74	47.96	47.06	43.52	37.38	29.31	20.41	11.83	4.45	-1.42	-6	-9.88	-13.86	-18.7	-24.95	-32.78	-41.83	-51.05	-58.91	-63.67	-64	-59.44	-50.57	-38.83	-26.01	-13.68	-2.83	6.18	13.38	18.99	23.09	25.76	27.13	27.45	27.15	26.71	26.47	26.59	26.99	27.48	27.9	28.24	28.6	29.13	29.9	30.76	31.31	31.06	29.55	26.59	22.32	17.21	11.92	7.05	2.92	-0.54	-3.82	-7.61	-12.58	-19.09	-27.01	-35.53	-43.35	-49	-51.19	-49.24	-43.25	-34.05	-22.96	-11.4	-0.53	8.85	16.34	21.81	25.29	26.87	26.73	25.17	22.6	19.55	16.52	13.93	11.97	10.64	9.78	9.23	8.92	8.89
-26.01	-13.68	-2.83	6.18	13.38	18.99	23.09	25.76	27.13	27.45	27.15	26.71	26.47	26.59	26.99	27.48	27.9	28.24	28.6	29.13	29.9	30.76	31.31	31.06	29.55	26.59	22.32	17.21	11.92	7.05	2.92	-0.54	-3.82	-7.61	-12.58	-19.09	-27.01	-35.53	-43.35	-49	-51.19	-49.24	-43.25	-34.05	-22.96	-11.4	-0.53	8.85	16.34	21.81	25.29	26.87	26.73	25.17	22.6	19.55	16.52	13.93	11.97	10.64	9.78	9.23	8.92	8.89	9.19	9.71	10.12	9.86	8.42	5.5	1.28	-3.72	-8.77	-13.33	-17.25	-20.84	-24.75	-29.7	-36.14	-44.04	-52.75	-61.09	-67.56	-70.75	-69.7	-64.23	-54.96	-43.19	-30.46	-18.1	-7.02	2.44	10.31	16.75	21.88	25.66	28.02	28.99	28.79	27.82	26.62	25.58	24.92	24.58	24.33	23.94	23.33	22.57	21.86	21.3	20.79	20	18.51	15.94	12.22	7.59	2.52	-2.53	-7.21	-11.46	-15.46	-19.6	-24.35	-30.13	-37.19	-45.35	-53.89	-61.57
9.19	9.71	10.12	9.86	8.42	5.5	1.28	-3.72	-8.77	-13.33	-17.25	-20.84	-24.75	-29.7	-36.14	-44.04	-52.75	-61.09	-67.56	-70.75	-69.7	-64.23	-54.96	-43.19	-30.46	-18.1	-7.02	2.44	10.31	16.75	21.88	25.66	28.02	28.99	28.79	27.82	26.62	25.58	24.92	24.58	24.33	23.94	23.33	22.57	21.86	21.3	20.79	20	18.51	15.94	12.22	7.59	2.52	-2.53	-7.21	-11.46	-15.46	-19.6	-24.35	-30.13	-37.19	-45.35	-53.89	-61.57	-66.84	-68.34	-65.31	-57.95	-47.29	-34.86	-22.17	-10.32	0.22	9.38	17.29	24.01	29.45	33.45	35.85	36.77	36.54	35.7	34.79	34.18	33.94	33.85	33.63	33.04	32.09	30.99	30.02	29.35	28.88	28.31	27.21	25.18	22.02	17.78	12.7	7.13	1.43	-4.15	-9.48	-14.59	-19.64	-24.89	-30.59	-36.95	-44	-51.4	-58.36	-63.74	-66.3	-65.05	-59.69	-50.72	-39.33	-26.99	-15.01	-4.18	5.26	13.46	20.64	26.84	31.88	35.48	37.5	38.09
-66.84	-68.34	-65.31	-57.95	-47.29	-34.86	-22.17	-10.32	0.22	9.38	17.29	24.01	29.45	33.45	35.85	36.77	36.54	35.7	34.79	34.18	33.94	33.85	33.63	33.04	32.09	30.99	30.02	29.35	28.88	28.31	27.21	25.18	22.02	17.78	12.7	7.13	1.43	-4.15	-9.48	-14.59	-19.64	-24.89	-30.59	-36.95	-44	-51.4	-58.36	-63.74	-66.3	-65.05	-59.69	-50.72	-39.33	-26.99	-15.01	-4.18	5.26	13.46	20.64	26.84	31.88	35.48	37.5	38.09	37.7	36.94	36.29	36.02	36.08	36.24	36.24	36	35.57	35.13	34.84	34.71	34.59	34.23	33.28	31.48	28.64	24.8	20.12	14.98	9.76	4.78	0.13	-4.29	-8.74	-13.57	-19.04	-25.35	-32.53	-40.4	-48.38	-55.49	-60.41	-61.84	-58.96	-51.86	-41.49	-29.42	-17.26	-6.14	3.43	11.41	17.88	22.75	25.81	26.92	26.26	24.41	22.17	20.25	19.01	18.4	18.13	17.91	17.71	17.66	17.95	18.64	19.54	20.2	20.09	18.78	16.14	12.39
37.7	36.94	36.29	36.02	36.08	36.24	36.24	36	35.57	35.13	34.84	34.71	34.59	34.23	33.28	31.48	28.64	24.8	20.12	14.98	9.76	4.78	0.13	-4.29	-8.74	-13.57	-19.04	-25.35	-32.53	-40.4	-48.38	-55.49	-60.41	-61.84	-58.96	-51.86	-41.49	-29.42	-17.26	-6.14	3.43	11.41	17.88	22.75	25.81	26.92	26.26	24.41	22.17	20.25	19.01	18.4	18.13	17.91	17.71	17.66	17.95	18.64	19.54	20.2	20.09	18.78	16.14	12.39	8.03	3.67	-0.22	-3.47	-6.3	-9.31	-13.19	-18.52	-25.49	-33.75	-42.28	-49.68	-54.42	-55.29	-51.81	-44.38	-34.16	-22.71	-11.49	-1.48	6.96	13.84	19.29	23.31	25.74	26.45	25.52	23.43	20.93	18.79	17.53	17.26	17.67	18.17	18.23	17.57	16.28	14.68	13.22	12.18	11.57	11.06	10.11	8.17	4.9	0.31	-5.25	-11.14	-16.75	-21.67	-25.92	-29.93	-34.32	-39.68	-46.22	-53.56	-60.73	-66.35	-69.06	-67.89	-62.67	-54.06	-43.43	-32.4
8.03	3.67	-0.22	-3.47	-6.3	-9.31	-13.19	-18.52	-25.49	-33.75	-42.28	-49.68	-54.42	-55.29	-51.81	-44.38	-34.16	-22.71	-11.49	-1.48	6.96	13.84	19.29	23.31	25.74	26.45	25.52	23.43	20.93	18.79	17.53	17.26	17.67	18.17	18.23	17.57	16.28	14.68	13.22	12.18	11.57	11.06	10.11	8.17	4.9	0.31	-5.25	-11.14	-16.75	-21.67	-25.92	-29.93	-34.32	-39.68	-46.22	-53.56	-60.73	-66.35	-69.06	-67.89	-62.67	-54.06	-43.43	-32.4	-22.37	-14.24	-8.34	-4.63	-2.88	-2.78	-3.94	-5.76	-7.47	-8.3	-7.7	-5.58	-2.29	1.43	4.75	6.98	7.8	7.38	6.35	5.52	5.54	6.55	8.11	9.4	9.69	8.78	7.09	5.34	4.05	3.16	1.92	-0.73	-5.74	-13.47	-23.63	-35.32	-47.14	-57.4	-64.2	-65.8	-60.98	-49.62	-32.98	-13.49	5.95	22.8	35.51	43.66	47.71	48.47	46.89	43.89	40.35	37	34.22	31.8	29.05	25.24	20.01	13.77	7.56	2.62	-0.14	-0.47
-22.37	-14.24	-8.34	-4.63	-2.88	-2.78	-3.94	-5.76	-7.47	-8.3	-7.7	-5.58	-2.29	1.43	4.75	6.98	7.8	7.38	6.35	5.52	5.54	6.55	8.11	9.4	9.69	8.78	7.09	5.34	4.05	3.16	1.92	-0.73	-5.74	-13.47	-23.63	-35.32	-47.14	-57.4	-64.2	-65.8	-60.98	-49.62	-32.98	-13.49	5.95	22.8	35.51	43.66	47.71	48.47	46.89	43.89	40.35	37	34.22	31.8	29.05	25.24	20.01	13.77	7.56	2.62	-0.14	-0.47	1.19	4.02	7.13	9.77	11.45	12	11.53	10.34	8.82	7.25	5.68	3.87	1.4	-2.24	-7.45	-14.33	-22.51	-31.02	-38.41	-43.06	-43.72	-39.94	-32.27	-22.08	-11.08	-0.75	8	14.95	20.31	24.48	27.73	30.14	31.63	32.09	31.53	30.09	28.13	26.16	24.69	24.06	24.36	25.36	26.6	27.51	27.64	26.74	24.84	22.15	18.96	15.51	11.9	8.11	4.03	-0.46	-5.47	-11.1	-17.43	-24.38	-31.58	-38.2	-43.05	-44.84	-42.68	-36.44
1.19	4.02	7.13	9.77	11.45	12	11.53	10.34	8.82	7.25	5.68	3.87	1.4	-2.24	-7.45	-14.33	-22.51	-31.02	-38.41	-43.06	-43.72	-39.94	-32.27	-22.08	-11.08	-0.75	8	14.95	20.31	24.48	27.73	30.14	31.63	32.09	31.53	30.09	28.13	26.16	24.69	24.06	24.36	25.36	26.6	27.51	27.64	26.74	24.84	22.15	18.96	15.51	11.9	8.11	4.03	-0.46	-5.47	-11.1	-17.43	-24.38	-31.58	-38.2	-43.05	-44.84	-42.68	-36.44	-26.92	-15.58	-4.07	6.29	14.81	21.43	26.41	30.02	32.27	32.93	31.76	28.72	24.22	19.07	14.28	10.69	8.73	8.21	8.54	8.87	8.53	7.08	4.44	0.79	-3.58	-8.35	-13.25	-18.15	-23.13	-28.53	-34.86	-42.71	-52.38	-63.69	-75.8	-87.32	-96.62	-102.28	-103.41	-99.85	-92.09	-81.11	-68.08	-54.15	-40.25	-26.91	-14.37	-2.65	8.28	18.29	27.08	34.25	39.63	43.39	46.15	48.69	51.61	55.08	58.86	62.5	65.72	68.47	70.78	72.57
-26.92	-15.58	-4.07	6.29	14.81	21.43	26.41	30.02	32.27	32.93	31.76	28.72	24.22	19.07	14.28	10.69	8.73	8.21	8.54	8.87	8.53	7.08	4.44	0.79	-3.58	-8.35	-13.25	-18.15	-23.13	-28.53	-34.86	-42.71	-52.38	-63.69	-75.8	-87.32	-96.62	-102.28	-103.41	-99.85	-92.09	-81.11	-68.08	-54.15	-40.25	-26.91	-14.37	-2.65	8.28	18.29	27.08	34.25	39.63	43.39	46.15	48.69	51.61	55.08	58.86	62.5	65.72	68.47	70.78	72.57	73.38	72.54	69.46	64.01	56.55	47.89	38.77	29.56	20.11	9.87	-1.69	-14.65	-28.22	-40.8	-50.32	-54.94	-53.7	-46.89	-35.92	-22.67	-8.81	4.66	17.32	29.06	39.56	48.29	54.58	58.03	58.83	57.6	55.14	52.02	48.5	44.56	40.24	35.73	31.48	27.92	25.26	23.31	21.64	19.74	17.27	14.13	10.44	6.34	1.97	-2.62	-7.31	-12.02	-16.68	-21.37	-26.39	-32.17	-39.11	-47.22	-55.98	-64.25	-70.47	-73.1	-71.16	-64.53	-54.06	-41.25
73.38	72.54	69.46	64.01	56.55	47.89	38.77	29.56	20.11	9.87	-1.69	-14.65	-28.22	-40.8	-50.32	-54.94	-53.7	-46.89	-35.92	-22.67	-8.81	4.66	17.32	29.06	39.56	48.29	54.58	58.03	58.83	57.6	55.14	52.02	48.5	44.56	40.24	35.73	31.48	27.92	25.26	23.31	21.64	19.74	17.27	14.13	10.44	6.34	1.97	-2.62	-7.31	-12.02	-16.68	-21.37	-26.39	-32.17	-39.11	-47.22	-55.98	-64.25	-70.47	-73.1	-71.16	-64.53	-54.06	-41.25	-27.74	-14.82	-3.18	6.98	15.75	23.2	29.33	34.14	37.75	40.46	42.68	44.76	46.8	48.68	50.13	50.84	50.62	49.48	47.59	45.24	42.67	40.02	37.19	33.9	29.77	24.43	17.78	10.11	2.05	-5.57	-12.06	-17.14	-21.05	-24.45	-28.16	-32.9	-39.01	-46.3	-54.08	-61.14	-66.12	-67.75	-65.31	-58.82	-49.13	-37.56	-25.52	-14.11	-3.9	4.91	12.25	18.02	22.06	24.3	24.92	24.41	23.43	22.59	22.22	22.33	22.69	23.03	23.25	23.43
-27.74	-14.82	-3.18	6.98	15.75	23.2	29.33	34.14	37.75	40.46	42.68	44.76	46.8	48.68	50.13	50.84	50.62	49.48	47.59	45.24	42.67	40.02	37.19	33.9	29.77	24.43	17.78	10.11	2.05	-5.57	-12.06	-17.14	-21.05	-24.45	-28.16	-32.9	-39.01	-46.3	-54.08	-61.14	-66.12	-67.75	-65.31	-58.82	-49.13	-37.56	-25.52	-14.11	-3.9	4.91	12.25	18.02	22.06	24.3	24.92	24.41	23.43	22.59	22.22	22.33	22.69	23.03	23.25	23.43	23.73	24.22	24.73	24.89	24.28	22.61	19.88	16.39	12.56	8.77	5.13	1.55	-2.29	-6.74	-12.11	-18.59	-26.11	-34.23	-42.05	-48.38	-51.94	-51.88	-47.99	-40.87	-31.67	-21.67	-11.9	-2.96	4.88	11.49	16.67	20.2	21.93	21.92	20.57	18.5	16.38	14.7	13.65	13.08	12.66	12.01	10.96	9.64	8.37	7.51	7.16	7.1	6.83	5.84	3.88	1.03	-2.33	-5.76	-8.96	-11.95	-14.94	-18.24	-22.06	-26.51	-31.57	-37.15	-43.09	-48.99
23.73	24.22	24.73	24.89	24.28	22.61	19.88	16.39	12.56	8.77	5.13	1.55	-2.29	-6.74	-12.11	-18.59	-26.11	-34.23	-42.05	-48.38	-51.94	-51.88	-47.99	-40.87	-31.67	-21.67	-11.9	-2.96	4.88	11.49	16.67	20.2	21.93	21.92	20.57	18.5	16.38	14.7	13.65	13.08	12.66	12.01	10.96	9.64	8.37	7.51	7.16	7.1	6.83	5.84	3.88	1.03	-2.33	-5.76	-8.96	-11.95	-14.94	-18.24	-22.06	-26.51	-31.57	-37.15	-43.09	-48.99	-54.17	-57.66	-58.5	-56.08	-50.4	-42.12	-32.27	-21.91	-11.73	-2.1	6.86	15.03	22.17	27.93	32.02	34.34	35.07	34.56	33.24	31.46	29.52	27.61	25.92	24.58	23.75	23.46	23.67	24.18	24.74	25.1	25.08	24.61	23.7	22.39	20.68	18.56	16.06	13.24	10.25	7.25	4.27	1.19	-2.31	-6.69	-12.35	-19.49	-27.92	-36.97	-45.52	-52.29	-56.14	-56.36	-52.9	-46.38	-37.83	-28.42	-19.13	-10.58	-2.98	3.66	9.44	14.4	18.47	21.52
-54.17	-57.66	-58.5	-56.08	-50.4	-42.12	-32.27	-21.91	-11.73	-2.1	6.86	15.03	22.17	27.93	32.02	34.34	35.07	34.56	33.24	31.46	29.52	27.61	25.92	24.58	23.75	23.46	23.67	24.18	24.74	25.1	25.08	24.61	23.7	22.39	20.68	18.56	16.06	13.24	10.25	7.25	4.27	1.19	-2.31	-6.69	-12.35	-19.49	-27.92	-36.97	-45.52	-52.29	-56.14	-56.36	-52.9	-46.38	-37.83	-28.42	-19.13	-10.58	-2.98	3.66	9.44	14.4	18.47	21.52	23.48	24.42	24.55	24.2	23.69	23.24	22.92	22.71	22.57	22.48	22.48	22.55	22.63	22.53	22.04	20.97	19.23	16.81	13.82	10.41	6.77	3.15	-0.22	-3.25	-6.01	-8.76	-11.94	-15.98	-21.15	-27.39	-34.22	-40.76	-45.91	-48.65	-48.3	-44.72	-38.4	-30.23	-21.23	-12.31	-4.11	2.99	8.81	13.26	16.33	18.09	18.71	18.48	17.74	16.8	15.9	15.18	14.66	14.3	14.09	14.03	14.21	14.72	15.57	16.59	17.42	17.6	16.76	14.78
23.48	24.42	24.55	24.2	23.69	23.24	22.92	22.71	22.57	22.48	22.48	22.55	22.63	22.53	22.04	20.97	19.23	16.81	13.82	10.41	6.77	3.15	-0.22	-3.25	-6.01	-8.76	-11.94	-15.98	-21.15	-27.39	-34.22	-40.76	-45.91	-48.65	-48.3	-44.72	-38.4	-30.23	-21.23	-12.31	-4.11	2.99	8.81	13.26	16.33	18.09	18.71	18.48	17.74	16.8	15.9	15.18	14.66	14.3	14.09	14.03	14.21	14.72	15.57	16.59	17.42	17.6	16.76	14.78	11.88	8.47	5.02	1.81	-1.19	-4.27	-7.89	-12.5	-18.34	-25.23	-32.56	-39.28	-44.12	-45.94	-44.11	-38.74	-30.68	-21.29	-11.94	-3.7	2.93	7.93	11.47	13.77	14.91	14.92	13.91	12.17	10.14	8.31	7	6.27	5.93	5.67	5.28	4.71	4.12	3.66	3.33	2.86	1.85	-0.09	-3.05	-6.82	-10.93	-14.88	-18.37	-21.4	-24.29	-27.52	-31.59	-36.82	-43.18	-50.12	-56.61	-61.26	-62.77	-60.33	-53.99	-44.6	-33.6	-22.44	-12.18	-3.31
11.88	8.47	5.02	1.81	-1.19	-4.27	-7.89	-12.5	-18.34	-25.23	-32.56	-39.28	-44.12	-45.94	-44.11	-38.74	-30.68	-21.29	-11.94	-3.7	2.93	7.93	11.47	13.77	14.91	14.92	13.91	12.17	10.14	8.31	7	6.27	5.93	5.67	5.28	4.71	4.12	3.66	3.33	2.86	1.85	-0.09	-3.05	-6.82	-10.93	-14.88	-18.37	-21.4	-24.29	-27.52	-31.59	-36.82	-43.18	-50.12	-56.61	-61.26	-62.77	-60.33	-53.99	-44.6	-33.6	-22.44	-12.18	-3.31	4.17	10.48	15.78	20.1	23.29	25.2	25.8	25.26	23.94	22.28	20.73	19.57	18.92	18.7	18.74	18.84	18.87	18.71	18.24	17.28	15.6	13.05	9.64	5.58	1.23	-3.02	-6.94	-10.53	-14.09	-18.06	-22.91	-28.86	-35.82	-43.19	-49.99	-55.04	-57.23	-55.93	-51.13	-43.44	-33.87	-23.54	-13.34	-3.87	4.6	11.92	18.02	22.82	26.27	28.45	29.56	29.92	29.83	29.56	29.22	28.81	28.19	27.28	26.11	24.85	23.78	23.13	22.91	22.86
4.17	10.48	15.78	20.1	23.29	25.2	25.8	25.26	23.94	22.28	20.73	19.57	18.92	18.7	18.74	18.84	18.87	18.71	18.24	17.28	15.6	13.05	9.64	5.58	1.23	-3.02	-6.94	-10.53	-14.09	-18.06	-22.91	-28.86	-35.82	-43.19	-49.99	-55.04	-57.23	-55.93	-51.13	-43.44	-33.87	-23.54	-13.34	-3.87	4.6	11.92	18.02	22.82	26.27	28.45	29.56	29.92	29.83	29.56	29.22	28.81	28.19	27.28	26.11	24.85	23.78	23.13	22.91	22.86	22.44	21.08	18.35	14.26	9.21	3.86	-1.14	-5.46	-9.2	-12.86	-17.11	-22.46	-29.04	-36.44	-43.74	-49.72	-53.16	-53.17	-49.47	-42.42	-32.95	-22.24	-11.4	-1.25	7.73	15.35	21.55	26.26	29.45	31.15	31.54	31	30.01	29.06	28.49	28.4	28.7	29.14	29.53	29.76	29.83	29.79	29.61	29.09	27.97	25.95	22.9	18.95	14.44	9.84	5.54	1.71	-1.76	-5.22	-9.09	-13.78	-19.5	-26.18	-33.41	-40.38	-45.96	-48.97	-48.49	-44.2
22.44	21.08	18.35	14.26	9.21	3.86	-1.14	-5.46	-9.2	-12.86	-17.11	-22.46	-29.04	-36.44	-43.74	-49.72	-53.16	-53.17	-49.47	-42.42	-32.95	-22.24	-11.4	-1.25	7.73	15.35	21.55	26.26	29.45	31.15	31.54	31	30.01	29.06	28.49	28.4	28.7	29.14	29.53	29.76	29.83	29.79	29.61	29.09	27.97	25.95	22.9	18.95	14.44	9.84	5.54	1.71	-1.76	-5.22	-9.09	-13.78	-19.5	-26.18	-33.41	-40.38	-45.96	-48.97	-48.49	-44.2	-36.52	-26.5	-15.5	-4.76	4.87	12.98	19.47	24.33	27.54	29.08	29.02	27.63	25.35	22.74	20.29	18.34	17.02	16.29	15.97	15.84	15.7	15.37	14.71	13.59	11.89	9.49	6.27	2.18	-2.79	-8.57	-15	-21.91	-29.13	-36.51	-43.94	-51.32	-58.33	-64.36	-68.44	-69.43	-66.35	-58.81	-47.25	-32.91	-17.54	-2.85	9.91	20.11	27.65	32.79	35.79	36.89	36.39	34.71	32.43	30.16	28.37	27.22	26.56	25.99	25.11	23.72	21.89	19.91
-36.52	-26.5	-15.5	-4.76	4.87	12.98	19.47	24.33	27.54	29.08	29.02	27.63	25.35	22.74	20.29	18.34	17.02	16.29	15.97	15.84	15.7	15.37	14.71	13.59	11.89	9.49	6.27	2.18	-2.79	-8.57	-15	-21.91	-29.13	-36.51	-43.94	-51.32	-58.33	-64.36	-68.44	-69.43	-66.35	-58.81	-47.25	-32.91	-17.54	-2.85	9.91	20.11	27.65	32.79	35.79	36.89	36.39	34.71	32.43	30.16	28.37	27.22	26.56	25.99	25.11	23.72	21.89	19.91	18.15	16.8	15.74	14.56	12.7	9.73	5.54	0.39	-5.22	-10.68	-15.64	-19.96	-23.83	-27.6	-31.68	-36.47	-42.17	-48.68	-55.42	-61.33	-65.08	-65.46	-61.83	-54.38	-44.03	-32.15	-20.07	-8.69	1.57	10.74	18.96	26.28	32.52	37.39	40.61	42.08	42.01	40.88	39.28	37.79	36.84	36.61	37.04	37.92	38.94	39.83	40.37	40.49	40.15	39.35	38.08	36.19	33.5	29.8	25.03	19.41	13.36	7.48	2.18	-2.4	-6.52	-10.67	-15.42	-21.18
18.15	16.8	15.74	14.56	12.7	9.73	5.54	0.39	-5.22	-10.68	-15.64	-19.96	-23.83	-27.6	-31.68	-36.47	-42.17	-48.68	-55.42	-61.33	-65.08	-65.46	-61.83	-54.38	-44.03	-32.15	-20.07	-8.69	1.57	10.74	18.96	26.28	32.52	37.39	40.61	42.08	42.01	40.88	39.28	37.79	36.84	36.61	37.04	37.92	38.94	39.83	40.37	40.49	40.15	39.35	38.08	36.19	33.5	29.8	25.03	19.41	13.36	7.48	2.18	-2.4	-6.52	-10.67	-15.42	-21.18	-28.01	-35.59	-43.15	-49.67	-54	-55.14	-52.55	-46.27	-37.04	-25.98	-14.41	-3.38	6.41	14.67	21.35	26.53	30.26	32.63	33.76	33.9	33.39	32.62	31.91	31.47	31.3	31.31	31.35	31.27	31.06	30.75	30.39	30.01	29.54	28.78	27.48	25.35	22.23	18.14	13.36	8.31	3.43	-1.03	-5.1	-9.03	-13.2	-17.93	-23.41	-29.66	-36.59	-43.88	-50.89	-56.65	-59.99	-59.87	-55.8	-48.08	-37.72	-26.13	-14.63	-4.15	4.91	12.42	18.35	22.59
-28.01	-35.59	-43.15	-49.67	-54	-55.14	-52.55	-46.27	-37.04	-25.98	-14.41	-3.38	6.41	14.67	21.35	26.53	30.26	32.63	33.76	33.9	33.39	32.62	31.91	31.47	31.3	31.31	31.35	31.27	31.06	30.75	30.39	30.01	29.54	28.78	27.48	25.35	22.23	18.14	13.36	8.31	3.43	-1.03	-5.1	-9.03	-13.2	-17.93	-23.41	-29.66	-36.59	-43.88	-50.89	-56.65	-59.99	-59.87	-55.8	-48.08	-37.72	-26.13	-14.63	-4.15	4.91	12.42	18.35	22.59	24.99	25.5	24.37	22.17	19.66	17.58	16.39	16.2	16.8	17.86	19.06	20.29	21.55	22.87	24.12	24.98	24.98	23.67	20.9	16.83	11.99	6.99	2.34	-1.78	-5.54	-9.41	-13.93	-19.55	-26.43	-34.26	-42.26	-49.25	-53.93	-55.19	-52.51	-46.12	-36.91	-26.16	-15.16	-4.88	4.12	11.69	17.82	22.57	25.93	27.9	28.54	28.06	26.8	25.25	23.86	23	22.77	23.05	23.56	23.98	24.08	23.79	23.18	22.34	21.31	20.03	18.34	16.02
24.99	25.5	24.37	22.17	19.66	17.58	16.39	16.2	16.8	17.86	19.06	20.29	21.55	22.87	24.12	24.98	24.98	23.67	20.9	16.83	11.99	6.99	2.34	-1.78	-5.54	-9.41	-13.93	-19.55	-26.43	-34.26	-42.26	-49.25	-53.93	-55.19	-52.51	-46.12	-36.91	-26.16	-15.16	-4.88	4.12	11.69	17.82	22.57	25.93	27.9	28.54	28.06	26.8	25.25	23.86	23	22.77	23.05	23.56	23.98	24.08	23.79	23.18	22.34	21.31	20.03	18.34	16.02	12.91	8.99	4.42	-0.48	-5.33	-9.78	-13.69	-17.12	-20.38	-23.91	-28.16	-33.43	-39.73	-46.7	-53.52	-59.11	-62.32	-62.22	-58.42	-51.18	-41.37	-30.18	-18.83	-8.26	1.01	8.82	15.26	20.43	24.39	27.11	28.61	29.04	28.72	28.07	27.46	27.08	26.95	27.01	27.23	27.63	28.28	29.13	29.94	30.3	29.85	28.44	26.22	23.6	20.97	18.51	16.08	13.39	10.14	6.21	1.77	-2.88	-7.43	-11.76	-15.86	-19.9	-24.08	-28.64	-33.79	-39.66
12.91	8.99	4.42	-0.48	-5.33	-9.78	-13.69	-17.12	-20.38	-23.91	-28.16	-33.43	-39.73	-46.7	-53.52	-59.11	-62.32	-62.22	-58.42	-51.18	-41.37	-30.18	-18.83	-8.26	1.01	8.82	15.26	20.43	24.39	27.11	28.61	29.04	28.72	28.07	27.46	27.08	26.95	27.01	27.23	27.63	28.28	29.13	29.94	30.3	29.85	28.44	26.22	23.6	20.97	18.51	16.08	13.39	10.14	6.21	1.77	-2.88	-7.43	-11.76	-15.86	-19.9	-24.08	-28.64	-33.79	-39.66	-46.12	-52.6	-58.12	-61.46	-61.55	-57.92	-50.82	-41.24	-30.42	-19.55	-9.39	-0.32	7.52	14.08	19.25	22.96	25.23	26.27	26.44	26.15	25.8	25.65	25.82	26.3	27.02	27.88	28.79	29.69	30.53	31.2	31.57	31.43	30.64	29.13	27.01	24.5	21.84	19.2	16.6	13.91	10.89	7.4	3.45	-0.8	-5.02	-8.95	-12.45	-15.65	-18.9	-22.69	-27.47	-33.45	-40.32	-47.3	-53.09	-56.33	-55.91	-51.43	-43.3	-32.73	-21.24	-10.23	-0.64	7.24
-46.12	-52.6	-58.12	-61.46	-61.55	-57.92	-50.82	-41.24	-30.42	-19.55	-9.39	-0.32	7.52	14.08	19.25	22.96	25.23	26.27	26.44	26.15	25.8	25.65	25.82	26.3	27.02	27.88	28.79	29.69	30.53	31.2	31.57	31.43	30.64	29.13	27.01	24.5	21.84	19.2	16.6	13.91	10.89	7.4	3.45	-0.8	-5.02	-8.95	-12.45	-15.65	-18.9	-22.69	-27.47	-33.45	-40.32	-47.3	-53.09	-56.33	-55.91	-51.43	-43.3	-32.73	-21.24	-10.23	-0.64	7.24	13.51	18.42	22.06	24.36	25.2	24.65	23.06	21.04	19.26	18.23	18.11	18.74	19.75	20.75	21.46	21.78	21.8	21.7	21.62	21.53	21.27	20.51	18.96	16.47	13.18	9.39	5.49	1.8	-1.59	-4.74	-7.76	-10.8	-13.94	-17.4	-21.45	-26.37	-32.18	-38.51	-44.41	-48.61	-49.84	-47.33	-41.17	-32.24	-21.95	-11.71	-2.51	5.2	11.43	16.29	19.75	21.66	21.87	20.5	18	15.1	12.57	10.91	10.23	10.32	10.78	11.24	11.51	11.49
13.51	18.42	22.06	24.36	25.2	24.65	23.06	21.04	19.26	18.23	18.11	18.74	19.75	20.75	21.46	21.78	21.8	21.7	21.62	21.53	21.27	20.51	18.96	16.47	13.18	9.39	5.49	1.8	-1.59	-4.74	-7.76	-10.8	-13.94	-17.4	-21.45	-26.37	-32.18	-38.51	-44.41	-48.61	-49.84	-47.33	-41.17	-32.24	-21.95	-11.71	-2.51	5.2	11.43	16.29	19.75	21.66	21.87	20.5	18	15.1	12.57	10.91	10.23	10.32	10.78	11.24	11.51	11.49	11.24	10.8	10.2	9.48	8.6	7.48	5.96	3.84	0.93	-2.76	-7.06	-11.61	-15.97	-19.86	-23.22	-26.19	-29.09	-32.28	-36.13	-40.91	-46.73	-53.31	-59.87	-65.2	-67.91	-66.86	-61.65	-52.75	-41.4	-29.1	-17.22	-6.63	2.33	9.66	15.49	19.94	23.05	24.89	25.6	25.43	24.71	23.77	22.91	22.33	22.12	22.27	22.66	23.17	23.64	23.98	24.05	23.74	22.9	21.44	19.28	16.48	13.15	9.42	5.43	1.27	-3.05	-7.53	-12.09	-16.58
11.24	10.8	10.2	9.48	8.6	7.48	5.96	3.84	0.93	-2.76	-7.06	-11.61	-15.97	-19.86	-23.22	-26.19	-29.09	-32.28	-36.13	-40.91	-46.73	-53.31	-59.87	-65.2	-67.91	-66.86	-61.65	-52.75	-41.4	-29.1	-17.22	-6.63	2.33	9.66	15.49	19.94	23.05	24.89	25.6	25.43	24.71	23.77	22.91	22.33	22.12	22.27	22.66	23.17	23.64	23.98	24.05	23.74	22.9	21.44	19.28	16.48	13.15	9.42	5.43	1.27	-3.05	-7.53	-12.09	-16.58	-20.77	-24.44	-27.58	-30.39	-33.39	-37.2	-42.32	-48.77	-55.87	-62.3	-66.38	-66.65	-62.44	-54.08	-42.81	-30.32	-18.17	-7.33	1.85	9.51	15.92	21.28	25.61	28.86	31.03	32.22	32.63	32.45	31.87	31.05	30.17	29.43	28.99	28.94	29.22	29.66	30.01	30.01	29.46	28.28	26.45	24.09	21.3	18.2	14.84	11.2	7.25	2.92	-1.73	-6.59	-11.46	-16.14	-20.51	-24.59	-28.58	-32.81	-37.67	-43.42	-50.04	-57.01	-63.34	-67.72	-68.85	-65.91
-20.77	-24.44	-27.58	-30.39	-33.39	-37.2	-42.32	-48.77	-55.87	-62.3	-66.38	-66.65	-62.44	-54.08	-42.81	-30.32	-18.17	-7.33	1.85	9.51	15.92	21.28	25.61	28.86	31.03	32.22	32.63	32.45	31.87	31.05	30.17	29.43	28.99	28.94	29.22	29.66	30.01	30.01	29.46	28.28	26.45	24.09	21.3	18.2	14.84	11.2	7.25	2.92	-1.73	-6.59	-11.46	-16.14	-20.51	-24.59	-28.58	-32.81	-37.67	-43.42	-50.04	-57.01	-63.34	-67.72	-68.85	-65.91	-58.81	-48.28	-35.63	-22.35	-9.73	1.4	10.73	18.29	24.25	28.79	32.02	34.07	35.08	35.31	35.06	34.66	34.33	34.24	34.41	34.83	35.42	36.12	36.86	37.58	38.18	38.54	38.51	37.93	36.72	34.83	32.3	29.18	25.55	21.49	17.05	12.35	7.5	2.68	-1.95	-6.28	-10.33	-14.31	-18.59	-23.58	-29.58	-36.51	-43.76	-50.23	-54.54	-55.44	-52.26	-45.13	-34.98	-23.24	-11.42	-0.62	8.56	15.99	21.77	25.97	28.49	29.17	28.01	25.3
-58.81	-48.28	-35.63	-22.35	-9.73	1.4	10.73	18.29	24.25	28.79	32.02	34.07	35.08	35.31	35.06	34.66	34.33	34.24	34.41	34.83	35.42	36.12	36.86	37.58	38.18	38.54	38.51	37.93	36.72	34.83	32.3	29.18	25.55	21.49	17.05	12.35	7.5	2.68	-1.95	-6.28	-10.33	-14.31	-18.59	-23.58	-29.58	-36.51	-43.76	-50.23	-54.54	-55.44	-52.26	-45.13	-34.98	-23.24	-11.42	-0.62	8.56	15.99	21.77	25.97	28.49	29.17	28.01	25.3	21.76	18.31	15.81	14.71	14.98	16.12	17.47	18.54	19.14	19.42	19.64	19.98	20.33	20.34	19.59	17.77	14.81	10.89	6.35	1.53	-3.33	-8.08	-12.67	-17.1	-21.39	-25.65	-30.11	-35.08	-40.78	-47.11	-53.49	-58.8	-61.71	-61.02	-56.19	-47.54	-36.16	-23.51	-10.94	0.63	10.77	19.3	26.04	30.67	32.84	32.46	29.93	26.17	22.38	19.62	18.45	18.76	19.95	21.23	22.04	22.24	22.05	21.86	21.88	21.99	21.75	20.6	18.13	14.29
21.76	18.31	15.81	14.71	14.98	16.12	17.47	18.54	19.14	19.42	19.64	19.98	20.33	20.34	19.59	17.77	14.81	10.89	6.35	1.53	-3.33	-8.08	-12.67	-17.1	-21.39	-25.65	-30.11	-35.08	-40.78	-47.11	-53.49	-58.8	-61.71	-61.02	-56.19	-47.54	-36.16	-23.51	-10.94	0.63	10.77	19.3	26.04	30.67	32.84	32.46	29.93	26.17	22.38	19.62	18.45	18.76	19.95	21.23	22.04	22.24	22.05	21.86	21.88	21.99	21.75	20.6	18.13	14.29	9.45	4.2	-0.9	-5.5	-9.6	-13.44	-17.35	-21.66	-26.6	-32.31	-38.73	-45.46	-51.75	-56.43	-58.27	-56.27	-50.14	-40.36	-28.15	-15.02	-2.3	9.08	18.75	26.62	32.71	36.96	39.26	39.54	38.02	35.2	31.77	28.46	25.83	24.13	23.35	23.28	23.64	24.18	24.67	24.92	24.7	23.78	21.96	19.16	15.41	10.95	6.08	1.18	-3.56	-8.06	-12.49	-17.17	-22.45	-28.61	-35.7	-43.38	-50.87	-56.96	-60.32	-59.82	-54.98	-46.13	-34.34	-21.12
9.45	4.2	-0.9	-5.5	-9.6	-13.44	-17.35	-21.66	-26.6	-32.31	-38.73	-45.46	-51.75	-56.43	-58.27	-56.27	-50.14	-40.36	-28.15	-15.02	-2.3	9.08	18.75	26.62	32.71	36.96	39.26	39.54	38.02	35.2	31.77	28.46	25.83	24.13	23.35	23.28	23.64	24.18	24.67	24.92	24.7	23.78	21.96	19.16	15.41	10.95	6.08	1.18	-3.56	-8.06	-12.49	-17.17	-22.45	-28.61	-35.7	-43.38	-50.87	-56.96	-60.32	-59.82	-54.98	-46.13	-34.34	-21.12	-7.93	4.15	14.56	23.14	29.94	35.01	38.37	40.09	40.32	39.34	37.53	35.24	32.77	30.28	27.81	25.44	23.23	21.33	19.81	18.66	17.62	16.35	14.41	11.54	7.72	3.19	-1.68	-6.51	-11.05	-15.28	-19.34	-23.58	-28.4	-34.14	-40.85	-48.07	-54.73	-59.38	-60.5	-57.11	-49.09	-37.25	-23.07	-8.22	5.95	18.59	29.42	38.42	45.68	51.24	55.08	57.23	57.82	57.12	55.52	53.38	51.04	48.76	46.71	45	43.72	42.87	42.45	42.25
-7.93	4.15	14.56	23.14	29.94	35.01	38.37	40.09	40.32	39.34	37.53	35.24	32.77	30.28	27.81	25.44	23.23	21.33	19.81	18.66	17.62	16.35	14.41	11.54	7.72	3.19	-1.68	-6.51	-11.05	-15.28	-19.34	-23.58	-28.4	-34.14	-40.85	-48.07	-54.73	-59.38	-60.5	-57.11	-49.09	-37.25	-23.07	-8.22	5.95	18.59	29.42	38.42	45.68	51.24	55.08	57.23	57.82	57.12	55.52	53.38	51.04	48.76	46.71	45	43.72	42.87	42.45	42.25	41.95	41.13	39.32	36.24	31.83	26.3	20.07	13.62	7.4	1.69	-3.35	-7.67	-11.3	-14.24	-16.55	-18.36	-19.92	-21.65	-24.11	-27.86	-33.24	-40.15	-47.82	-54.91	-59.72	-60.74	-57.05	-48.64	-36.38	-21.69	-6.13	8.99	22.78	34.8	44.92	53.11	59.42	63.84	66.27	66.66	65.07	61.79	57.36	52.42	47.58	43.22	39.45	36.22	33.39	30.89	28.67	26.63	24.55	22.15	19.18	15.6	11.6	7.47	3.53	-0.14	-3.68	-7.42	-11.66	-16.53
41.95	41.13	39.32	36.24	31.83	26.3	20.07	13.62	7.4	1.69	-3.35	-7.67	-11.3	-14.24	-16.55	-18.36	-19.92	-21.65	-24.11	-27.86	-33.24	-40.15	-47.82	-54.91	-59.72	-60.74	-57.05	-48.64	-36.38	-21.69	-6.13	8.99	22.78	34.8	44.92	53.11	59.42	63.84	66.27	66.66	65.07	61.79	57.36	52.42	47.58	43.22	39.45	36.22	33.39	30.89	28.67	26.63	24.55	22.15	19.18	15.6	11.6	7.47	3.53	-0.14	-3.68	-7.42	-11.66	-16.53	-21.92	-27.45	-32.7	-37.33	-41.23	-44.63	-47.97	-51.78	-56.51	-62.31	-68.96	-75.73	-81.5	-84.93	-84.82	-80.48	-71.97	-60.11	-46.2	-31.65	-17.61	-4.76	6.58	16.31	24.35	30.61	35.04	37.76	39.02	39.23	38.84	38.18	37.47	36.79	36.13	35.47	34.82	34.26	33.92	33.87	34.04	34.16	33.79	32.51	30.08	26.57	22.32	17.86	13.61	9.78	6.31	2.96	-0.5	-4.22	-8.17	-12.21	-16.15	-19.81	-23.07	-26.01	-28.87	-32.07	-36.13	-41.4
-21.92	-27.45	-32.7	-37.33	-41.23	-44.63	-47.97	-51.78	-56.51	-62.31	-68.96	-75.73	-81.5	-84.93	-84.82	-80.48	-71.97	-60.11	-46.2	-31.65	-17.61	-4.76	6.58	16.31	24.35	30.61	35.04	37.76	39.02	39.23	38.84	38.18	37.47	36.79	36.13	35.47	34.82	34.26	33.92	33.87	34.04	34.16	33.79	32.51	30.08	26.57	22.32	17.86	13.61	9.78	6.31	2.96	-0.5	-4.22	-8.17	-12.21	-16.15	-19.81	-23.07	-26.01	-28.87	-32.07	-36.13	-41.4	-47.88	-54.99	-61.63	-66.41	-68	-65.6	-59.09	-49.15	-36.96	-23.88	-11.16	0.33	10.13	18.12	24.38	29.1	32.44	34.59	35.75	36.14	36.02	35.6	35.03	34.41	33.79	33.19	32.68	32.32	32.13	32.1	32.07	31.83	31.12	29.73	27.63	24.94	21.91	18.8	15.73	12.66	9.41	5.72	1.46	-3.35	-8.43	-13.38	-17.79	-21.38	-24.14	-26.34	-28.41	-30.91	-34.33	-38.94	-44.69	-51.09	-57.15	-61.63	-63.26	-61.19	-55.28	-46.19	-35.16	-23.61
-47.88	-54.99	-61.63	-66.41	-68	-65.6	-59.09	-49.15	-36.96	-23.88	-11.16	0.33	10.13	18.12	24.38	29.1	32.44	34.59	35.75	36.14	36.02	35.6	35.03	34.41	33.79	33.19	32.68	32.32	32.13	32.1	32.07	31.83	31.12	29.73	27.63	24.94	21.91	18.8	15.73	12.66	9.41	5.72	1.46	-3.35	-8.43	-13.38	-17.79	-21.38	-24.14	-26.34	-28.41	-30.91	-34.33	-38.94	-44.69	-51.09	-57.15	-61.63	-63.26	-61.19	-55.28	-46.19	-35.16	-23.61	-12.71	-3.14	4.9	11.46	16.66	20.52	23	24.08	23.93	22.84	21.27	19.66	18.35	17.49	17.1	17.04	17.19	17.47	17.87	18.37	18.84	19.01	18.54	17.18	14.88	11.82	8.39	4.98	1.82	-1.09	-3.95	-7.02	-10.44	-14.12	-17.79	-21.09	-23.77	-25.77	-27.43	-29.28	-31.94	-35.81	-40.89	-46.65	-52.16	-56.33	-58.14	-56.95	-52.58	-45.31	-35.85	-25.13	-14.14	-3.79	5.29	12.72	18.43	22.49	25.1	26.4	26.57	25.71	23.99	21.66
-12.71	-3.14	4.9	11.46	16.66	20.52	23	24.08	23.93	22.84	21.27	19.66	18.35	17.49	17.1	17.04	17.19	17.47	17.87	18.37	18.84	19.01	18.54	17.18	14.88	11.82	8.39	4.98	1.82	-1.09	-3.95	-7.02	-10.44	-14.12	-17.79	-21.09	-23.77	-25.77	-27.43	-29.28	-31.94	-35.81	-40.89	-46.65	-52.16	-56.33	-58.14	-56.95	-52.58	-45.31	-35.85	-25.13	-14.14	-3.79	5.29	12.72	18.43	22.49	25.1	26.4	26.57	25.71	23.99	21.66	19.04	16.53	14.53	13.3	12.92	13.24	13.93	14.62	14.99	14.92	14.39	13.46	12.17	10.48	8.28	5.48	2.11	-1.68	-5.62	-9.41	-12.81	-15.72	-18.22	-20.55	-23.06	-26.14	-30.06	-34.83	-40.1	-45.11	-48.81	-50.16	-48.5	-43.7	-36.28	-27.26	-17.75	-8.7	-0.71	5.98	11.32	15.37	18.18	19.8	20.35	19.99	18.97	17.59	16.14	14.84	13.8	13.04	12.51	12.11	11.78	11.49	11.22	10.84	10.16	8.88	6.75	3.69	-0.16	-4.43
19.04	16.53	14.53	13.3	12.92	13.24	13.93	14.62	14.99	14.92	14.39	13.46	12.17	10.48	8.28	5.48	2.11	-1.68	-5.62	-9.41	-12.81	-15.72	-18.22	-20.55	-23.06	-26.14	-30.06	-34.83	-40.1	-45.11	-48.81	-50.16	-48.5	-43.7	-36.28	-27.26	-17.75	-8.7	-0.71	5.98	11.32	15.37	18.18	19.8	20.35	19.99	18.97	17.59	16.14	14.84	13.8	13.04	12.51	12.11	11.78	11.49	11.22	10.84	10.16	8.88	6.75	3.69	-0.16	-4.43	-8.74	-12.78	-16.48	-19.97	-23.56	-27.63	-32.44	-37.98	-43.87	-49.3	-53.14	-54.33	-52.13	-46.5	-38.12	-28.16	-17.95	-8.54	-0.53	5.96	11.08	15.02	17.85	19.55	20.07	19.48	18.01	15.99	13.79	11.75	10.1	8.92	8.22	7.91	7.82	7.79	7.59	6.98	5.79	3.88	1.28	-1.86	-5.32	-8.88	-12.42	-16	-19.83	-24.24	-29.39	-35.17	-41	-45.93	-48.82	-48.73	-45.23	-38.54	-29.48	-19.22	-8.94	0.45	8.42	14.82	19.67	23.03
-8.74	-12.78	-16.48	-19.97	-23.56	-27.63	-32.44	-37.98	-43.87	-49.3	-53.14	-54.33	-52.13	-46.5	-38.12	-28.16	-17.95	-8.54	-0.53	5.96	11.08	15.02	17.85	19.55	20.07	19.48	18.01	15.99	13.79	11.75	10.1	8.92	8.22	7.91	7.82	7.79	7.59	6.98	5.79	3.88	1.28	-1.86	-5.32	-8.88	-12.42	-16	-19.83	-24.24	-29.39	-35.17	-41	-45.93	-48.82	-48.73	-45.23	-38.54	-29.48	-19.22	-8.94	0.45	8.42	14.82	19.67	23.03	24.97	25.52	24.8	23.06	20.7	18.21	16.06	14.58	13.81	13.56	13.47	13.14	12.28	10.8	8.78	6.35	3.63	0.7	-2.52	-6.13	-10.26	-14.98	-20.31	-26.21	-32.54	-39.03	-45.2	-50.41	-53.84	-54.75	-52.58	-47.2	-38.93	-28.51	-17.02	-5.64	4.49	12.53	18.05	21.11	22.19	22.03	21.26	20.26	19.01	17.32	15	12.14	9.11	6.34	4.12	2.52	1.62	1.83	4.07	9.39	18.44	30.73	44.39	56.74	65.2	68.18	65.45	57.66
24.97	25.52	24.8	23.06	20.7	18.21	16.06	14.58	13.81	13.56	13.47	13.14	12.28	10.8	8.78	6.35	3.63	0.7	-2.52	-6.13	-10.26	-14.98	-20.31	-26.21	-32.54	-39.03	-45.2	-50.41	-53.84	-54.75	-52.58	-47.2	-38.93	-28.51	-17.02	-5.64	4.49	12.53	18.05	21.11	22.19	22.03	21.26	20.26	19.01	17.32	15	12.14	9.11	6.34	4.12	2.52	1.62	1.83	4.07	9.39	18.44	30.73	44.39	56.74	65.2	68.18	65.45	57.66	45.53	29.31	9.02	-14.55	-38.66	-58.53	-68.48	-64.32	-45.27	-14.58	21.78	57.58	88.63	113.59	133.13	148.08	158.13	161.81	157.66	145.75	128.4	109.54	93.23	82.13	76.9	76.48	78.91	82.21	84.82	85.74	84.53	81.31	76.68	71.57	66.76	62.53	58.38	53.23	45.98	36.09	23.84	10.25	-3.42	-16.11	-27.2	-36.24	-42.76	-46.11	-45.85	-42.09	-35.76	-28.46	-21.9	-17.39	-15.46	-16.04	-18.78	-23.27	-29.06	-35.44	-41.43	-46.05	-48.78	-49.86
45.53	29.31	9.02	-14.55	-38.66	-58.53	-68.48	-64.32	-45.27	-14.58	21.78	57.58	88.63	113.59	133.13	148.08	158.13	161.81	157.66	145.75	128.4	109.54	93.23	82.13	76.9	76.48	78.91	82.21	84.82	85.74	84.53	81.31	76.68	71.57	66.76	62.53	58.38	53.23	45.98	36.09	23.84	10.25	-3.42	-16.11	-27.2	-36.24	-42.76	-46.11	-45.85	-42.09	-35.76	-28.46	-21.9	-17.39	-15.46	-16.04	-18.78	-23.27	-29.06	-35.44	-41.43	-46.05	-48.78	-49.86	-50.14	-50.56	-51.59	-52.85	-53.35	-52	-48.11	-41.55	-32.81	-22.77	-12.52	-3.34	3.49	6.79	5.81	0.59	-7.98	-18.31	-28.6	-37.47	-44.51	-50.24	-55.84	-62.38	-70.28	-78.97	-87.13	-93.06	-95.13	-92.02	-83.04	-68.46	-49.95	-30.72	-14.96	-6.64	-8.05	-18.72	-35.46	-53.41	-67.73	-75.01	-74.02	-65.52	-51.66	-35.28	-19.24	-6.09	2.46	5.88	5.09	2.18	-0.44	-1.05	0.48	2.68	3.08	-0.57	-9.29	-22.42	-37.73	-52.19	-62.77	-67.26
-50.14	-50.56	-51.59	-52.85	-53.35	-52	-48.11	-41.55	-32.81	-22.77	-12.52	-3.34	3.49	6.79	5.81	0.59	-7.98	-18.31	-28.6	-37.47	-44.51	-50.24	-55.84	-62.38	-70.28	-78.97	-87.13	-93.06	-95.13	-92.02	-83.04	-68.46	-49.95	-30.72	-14.96	-6.64	-8.05	-18.72	-35.46	-53.41	-67.73	-75.01	-74.02	-65.52	-51.66	-35.28	-19.24	-6.09	2.46	5.88	5.09	2.18	-0.44	-1.05	0.48	2.68	3.08	-0.57	-9.29	-22.42	-37.73	-52.19	-62.77	-67.26	-64.62	-55.19	-40.57	-23.22	-5.86	9.18	20.49	27.78	31.66	33.31	33.93	34.52	35.64	37.34	39.3	40.89	41.44	40.49	37.85	33.68	28.29	22.12	15.62	9.17	2.99	-2.88	-8.59	-14.32	-20.14	-25.99	-31.8	-37.68	-43.9	-50.73	-58.07	-65.07	-70.25	-71.95	-69.05	-61.54	-50.46	-37.52	-24.42	-12.28	-1.54	7.82	15.88	22.52	27.38	30.07	30.43	28.72	25.59	21.92	18.56	16.12	14.87	14.84	15.92	17.97	20.79	24.06	27.22	29.49
-64.62	-55.19	-40.57	-23.22	-5.86	9.18	20.49	27.78	31.66	33.31	33.93	34.52	35.64	37.34	39.3	40.89	41.44	40.49	37.85	33.68	28.29	22.12	15.62	9.17	2.99	-2.88	-8.59	-14.32	-20.14	-25.99	-31.8	-37.68	-43.9	-50.73	-58.07	-65.07	-70.25	-71.95	-69.05	-61.54	-50.46	-37.52	-24.42	-12.28	-1.54	7.82	15.88	22.52	27.38	30.07	30.43	28.72	25.59	21.92	18.56	16.12	14.87	14.84	15.92	17.97	20.79	24.06	27.22	29.49	30.12	28.59	24.87	19.4	12.86	5.9	-1.16	-8.4	-16.19	-24.96	-34.9	-45.79	-56.84	-66.77	-74.06	-77.35	-75.88	-69.8	-60.07	-48.19	-35.67	-23.62	-12.61	-2.81	5.83	13.39	19.84	25.11	29.13	31.97	33.75	34.72	35.18	35.47	35.92	36.79	38.26	40.41	43.19	46.42	49.85	53.11	55.76	57.36	57.57	56.26	53.54	49.77	45.4	40.81	36.15	31.33	26.1	20.31	13.97	7.35	0.79	-5.42	-11.19	-16.64	-22.08	-27.88	-34.34	-41.57
30.12	28.59	24.87	19.4	12.86	5.9	-1.16	-8.4	-16.19	-24.96	-34.9	-45.79	-56.84	-66.77	-74.06	-77.35	-75.88	-69.8	-60.07	-48.19	-35.67	-23.62	-12.61	-2.81	5.83	13.39	19.84	25.11	29.13	31.97	33.75	34.72	35.18	35.47	35.92	36.79	38.26	40.41	43.19	46.42	49.85	53.11	55.76	57.36	57.57	56.26	53.54	49.77	45.4	40.81	36.15	31.33	26.1	20.31	13.97	7.35	0.79	-5.42	-11.19	-16.64	-22.08	-27.88	-34.34	-41.57	-49.24	-56.58	-62.32	-65.07	-63.7	-57.78	-47.77	-34.88	-20.7	-6.7	6.12	17.28	26.77	34.76	41.42	46.8	50.86	53.56	55	55.46	55.28	54.84	54.28	53.59	52.65	51.36	49.86	48.44	47.46	47.15	47.42	47.87	47.94	47.12	45.14	42.07	38.24	34.16	30.26	26.81	23.78	20.95	17.98	14.57	10.62	6.28	1.88	-2.2	-5.69	-8.54	-10.99	-13.46	-16.51	-20.61	-26.02	-32.59	-39.68	-46.05	-50.22	-50.81	-47.03	-39.02	-27.89	-15.31
-49.24	-56.58	-62.32	-65.07	-63.7	-57.78	-47.77	-34.88	-20.7	-6.7	6.12	17.28	26.77	34.76	41.42	46.8	50.86	53.56	55	55.46	55.28	54.84	54.28	53.59	52.65	51.36	49.86	48.44	47.46	47.15	47.42	47.87	47.94	47.12	45.14	42.07	38.24	34.16	30.26	26.81	23.78	20.95	17.98	14.57	10.62	6.28	1.88	-2.2	-5.69	-8.54	-10.99	-13.46	-16.51	-20.61	-26.02	-32.59	-39.68	-46.05	-50.22	-50.81	-47.03	-39.02	-27.89	-15.31	-3.01	7.74	16.38	22.95	27.83	31.4	33.86	35.26	35.69	35.33	34.54	33.78	33.48	33.93	35.24	37.28	39.71	42	43.53	43.74	42.3	39.24	34.9	29.78	24.36	18.91	13.46	7.92	2.21	-3.61	-9.29	-14.51	-19	-22.62	-25.46	-27.81	-30.04	-32.45	-35.13	-37.93	-40.53	-42.69	-44.41	-46.01	-47.98	-50.81	-54.74	-59.59	-64.84	-69.65	-73.02	-73.99	-71.81	-66.17	-57.34	-46.16	-33.89	-21.76	-10.72	-1.19	6.86	13.65	19.34	23.91
-3.01	7.74	16.38	22.95	27.83	31.4	33.86	35.26	35.69	35.33	34.54	33.78	33.48	33.93	35.24	37.28	39.71	42	43.53	43.74	42.3	39.24	34.9	29.78	24.36	18.91	13.46	7.92	2.21	-3.61	-9.29	-14.51	-19	-22.62	-25.46	-27.81	-30.04	-32.45	-35.13	-37.93	-40.53	-42.69	-44.41	-46.01	-47.98	-50.81	-54.74	-59.59	-64.84	-69.65	-73.02	-73.99	-71.81	-66.17	-57.34	-46.16	-33.89	-21.76	-10.72	-1.19	6.86	13.65	19.34	23.91	27.16	28.98	29.47	29.03	28.27	27.76	27.79	28.33	29.11	29.81	30.21	30.23	29.92	29.31	28.31	26.79	24.61	21.69	18.05	13.74	8.84	3.48	-2.1	-7.54	-12.4	-16.35	-19.32	-21.58	-23.7	-26.31	-29.92	-34.77	-40.73	-47.34	-53.81	-59.13	-62.15	-61.87	-57.69	-49.71	-38.73	-26.08	-13.21	-1.3	8.97	17.45	24.26	29.62	33.63	36.33	37.7	37.86	37	35.45	33.54	31.54	29.73	28.33	27.52	27.37	27.78	28.45	28.94	28.88
27.16	28.98	29.47	29.03	28.27	27.76	27.79	28.33	29.11	29.81	30.21	30.23	29.92	29.31	28.31	26.79	24.61	21.69	18.05	13.74	8.84	3.48	-2.1	-7.54	-12.4	-16.35	-19.32	-21.58	-23.7	-26.31	-29.92	-34.77	-40.73	-47.34	-53.81	-59.13	-62.15	-61.87	-57.69	-49.71	-38.73	-26.08	-13.21	-1.3	8.97	17.45	24.26	29.62	33.63	36.33	37.7	37.86	37	35.45	33.54	31.54	29.73	28.33	27.52	27.37	27.78	28.45	28.94	28.88	28.01	26.38	24.15	21.6	18.83	15.79	12.31	8.23	3.56	-1.51	-6.66	-11.57	-16.01	-19.93	-23.39	-26.56	-29.7	-33.2	-37.47	-42.79	-49.05	-55.59	-61.24	-64.54	-64.23	-59.74	-51.35	-40.1	-27.53	-15.1	-3.91	5.47	12.97	18.76	23.1	26.16	28.05	28.9	28.86	28.18	27.15	26.04	25.07	24.34	23.95	23.94	24.34	25.11	26.14	27.18	27.93	28.08	27.42	25.9	23.6	20.7	17.46	14.04	10.51	6.85	2.97	-1.16	-5.53	-9.99
28.01	26.38	24.15	21.6	18.83	15.79	12.31	8.23	3.56	-1.51	-6.66	-11.57	-16.01	-19.93	-23.39	-26.56	-29.7	-33.2	-37.47	-42.79	-49.05	-55.59	-61.24	-64.54	-64.23	-59.74	-51.35	-40.1	-27.53	-15.1	-3.91	5.47	12.97	18.76	23.1	26.16	28.05	28.9	28.86	28.18	27.15	26.04	25.07	24.34	23.95	23.94	24.34	25.11	26.14	27.18	27.93	28.08	27.42	25.9	23.6	20.7	17.46	14.04	10.51	6.85	2.97	-1.16	-5.53	-9.99	-14.39	-18.58	-22.57	-26.49	-30.63	-35.37	-41.02	-47.65	-54.85	-61.69	-66.81	-68.75	-66.41	-59.5	-48.65	-35.26	-21.06	-7.56	4.23	13.91	21.51	27.24	31.32	33.87	34.96	34.7	33.28	31.04	28.45	26.05	24.32	23.58	23.84	24.82	26.06	27.07	27.52	27.29	26.42	25.06	23.32	21.22	18.76	15.95	12.84	9.55	6.17	2.75	-0.73	-4.34	-8.11	-11.94	-15.66	-19.1	-22.25	-25.37	-28.98	-33.63	-39.61	-46.65	-53.78	-59.49	-62.1	-60.3
-14.39	-18.58	-22.57	-26.49	-30.63	-35.37	-41.02	-47.65	-54.85	-61.69	-66.81	-68.75	-66.41	-59.5	-48.65	-35.26	-21.06	-7.56	4.23	13.91	21.51	27.24	31.32	33.87	34.96	34.7	33.28	31.04	28.45	26.05	24.32	23.58	23.84	24.82	26.06	27.07	27.52	27.29	26.42	25.06	23.32	21.22	18.76	15.95	12.84	9.55	6.17	2.75	-0.73	-4.34	-8.11	-11.94	-15.66	-19.1	-22.25	-25.37	-28.98	-33.63	-39.61	-46.65	-53.78	-59.49	-62.1	-60.3	-53.58	-42.43	-28.17	-12.58	2.57	15.88	26.47	33.99	38.47	40.2	39.66	37.48	34.31	30.75	27.29	24.24	21.77	20	19.01	18.87	19.55	20.88	22.53	24.09	25.17	25.52	25.01	23.65	21.57	18.88	15.71	12.12	8.16	3.86	-0.67	-5.29	-9.79	-13.97	-17.71	-21.07	-24.23	-27.53	-31.32	-35.9	-41.35	-47.37	-53.27	-57.93	-60.05	-58.49	-52.73	-43.07	-30.63	-17.04	-3.93	7.51	16.62	23.31	27.77	30.32	31.22	30.74	29.17	26.89
-53.58	-42.43	-28.17	-12.58	2.57	15.88	26.47	33.99	38.47	40.2	39.66	37.48	34.31	30.75	27.29	24.24	21.77	20	19.01	18.87	19.55	20.88	22.53	24.09	25.17	25.52	25.01	23.65	21.57	18.88	15.71	12.12	8.16	3.86	-0.67	-5.29	-9.79	-13.97	-17.71	-21.07	-24.23	-27.53	-31.32	-35.9	-41.35	-47.37	-53.27	-57.93	-60.05	-58.49	-52.73	-43.07	-30.63	-17.04	-3.93	7.51	16.62	23.31	27.77	30.32	31.22	30.74	29.17	26.89	24.35	21.95	20.05	18.82	18.33	18.49	19.16	20.12	21.16	22.05	22.56	22.52	21.82	20.44	18.45	15.95	13.04	9.76	6.12	2.17	-2.01	-6.21	-10.24	-13.95	-17.36	-20.64	-24.13	-28.2	-33.13	-39	-45.55	-52.04	-57.37	-60.23	-59.44	-54.42	-45.39	-33.42	-20.13	-7.18	4.15	13.22	19.98	24.7	27.69	29.16	29.27	28.15	26.09	23.51	20.91	18.78	17.45	17.05	17.47	18.37	19.33	19.95	20.02	19.59	18.85	17.99	17.07	15.91
24.35	21.95	20.05	18.82	18.33	18.49	19.16	20.12	21.16	22.05	22.56	22.52	21.82	20.44	18.45	15.95	13.04	9.76	6.12	2.17	-2.01	-6.21	-10.24	-13.95	-17.36	-20.64	-24.13	-28.2	-33.13	-39	-45.55	-52.04	-57.37	-60.23	-59.44	-54.42	-45.39	-33.42	-20.13	-7.18	4.15	13.22	19.98	24.7	27.69	29.16	29.27	28.15	26.09	23.51	20.91	18.78	17.45	17.05	17.47	18.37	19.33	19.95	20.02	19.59	18.85	17.99	17.07	15.91	14.24	11.81	8.56	4.65	0.38	-3.89	-7.97	-11.77	-15.36	-18.86	-22.41	-26.21	-30.52	-35.58	-41.48	-47.96	-54.22	-59.07	-61.16	-59.37	-53.29	-43.29	-30.49	-16.46	-2.74	9.43	19.36	26.82	31.93	34.98	36.28	36.1	34.73	32.52	29.9	27.4	25.52	24.6	24.69	25.58	26.89	28.22	29.3	29.97	30.14	29.69	28.45	26.19	22.78	18.27	12.92	7.18	1.49	-3.75	-8.37	-12.33	-15.77	-18.88	-21.95	-25.28	-29.26	-34.16	-39.99	-46.27
14.24	11.81	8.56	4.65	0.38	-3.89	-7.97	-11.77	-15.36	-18.86	-22.41	-26.21	-30.52	-35.58	-41.48	-47.96	-54.22	-59.07	-61.16	-59.37	-53.29	-43.29	-30.49	-16.46	-2.74	9.43	19.36	26.82	31.93	34.98	36.28	36.1	34.73	32.52	29.9	27.4	25.52	24.6	24.69	25.58	26.89	28.22	29.3	29.97	30.14	29.69	28.45	26.19	22.78	18.27	12.92	7.18	1.49	-3.75	-8.37	-12.33	-15.77	-18.88	-21.95	-25.28	-29.26	-34.16	-39.99	-46.27	-51.98	-55.69	-56.07	-52.3	-44.51	-33.69	-21.36	-8.94	2.6	12.94	22.19	30.52	37.96	44.31	49.3	52.81	54.89	55.79	55.98	56.08	56.89	59.32	64.25	72.18	83.07	96.18	110.2	123.52	134.56	142.18	145.84	145.84	143.2	139.42	136.12	134.49	134.99	137.17	139.73	140.91	138.96	132.52	120.95	104.44	83.91	60.97	37.6	15.97	-2.06	-15.23	-23.24	-26.76	-27.21	-26.28	-25.5	-25.8	-27.57	-30.8	-35.33	-41.03	-47.71	-55.07	-62.62	-69.8
-51.98	-55.69	-56.07	-52.3	-44.51	-33.69	-21.36	-8.94	2.6	12.94	22.19	30.52	37.96	44.31	49.3	52.81	54.89	55.79	55.98	56.08	56.89	59.32	64.25	72.18	83.07	96.18	110.2	123.52	134.56	142.18	145.84	145.84	143.2	139.42	136.12	134.49	134.99	137.17	139.73	140.91	138.96	132.52	120.95	104.44	83.91	60.97	37.6	15.97	-2.06	-15.23	-23.24	-26.76	-27.21	-26.28	-25.5	-25.8	-27.57	-30.8	-35.33	-41.03	-47.71	-55.07	-62.62	-69.8	-76.07	-81.03	-84.49	-86.47	-87.15	-86.79	-85.73	-84.25	-82.46	-80.3	-77.63	-74.53	-71.55	-69.55	-69.49	-71.9	-76.66	-83.11	-90.37	-97.89	-105.74	-114.26	-123.41	-132.17	-138.66	-140.76	-137.13	-127.5	-112.96	-95.54	-77.52	-60.48	-45.02	-31.08	-18.31	-7.06	1.92	7.47	8.37	4.03	-4.81	-15.98	-26.62	-33.78	-35.87	-32.15	-22.82	-8.56	9.82	31.55	55.61	80.17	103.13	117.93	118.67	104.11	79.32	52.21	29.29	14.16	8.12	12.35	26.75	50.98
-76.07	-81.03	-84.49	-86.47	-87.15	-86.79	-85.73	-84.25	-82.46	-80.3	-77.63	-74.53	-71.55	-69.55	-69.49	-71.9	-76.66	-83.11	-90.37	-97.89	-105.74	-114.26	-123.41	-132.17	-138.66	-140.76	-137.13	-127.5	-112.96	-95.54	-77.52	-60.48	-45.02	-31.08	-18.31	-7.06	1.92	7.47	8.37	4.03	-4.81	-15.98	-26.62	-33.78	-35.87	-32.15	-22.82	-8.56	9.82	31.55	55.61	80.17	103.13	117.93	118.67	104.11	79.32	52.21	29.29	14.16	8.12	12.35	26.75	50.98	83.13	119.26	154.24	183.71	206.25	215.71	211.8	198.76	182.71	167.51	153.26	137.83	119.69	99.57	80.59	64.03	50.02	37.47	24.52	9.45	-8.81	-30.96	-58.03	-88.08	-119.72	-151.54	-182.01	-209.41	-232.09	-248.87	-259.51	-264.77	-266.02	-264.67	-261.47	-256.6	-250.04	-241.64	-231.32	-219.14	-205.28	-190.05	-173.91	-157.09	-139.66	-121.58	-102.81	-83.48	-64.04	-45.09	-27.07	-10.33	5.13	19.27	31.92	42.95	52.68	62.14	72.72	85.48	100.22	115.46	128.96	138.67
83.13	119.26	154.24	183.71	206.25	215.71	211.8	198.76	182.71	167.51	153.26	137.83	119.69	99.57	80.59	64.03	50.02	37.47	24.52	9.45	-8.81	-30.96	-58.03	-88.08	-119.72	-151.54	-182.01	-209.41	-232.09	-248.87	-259.51	-264.77	-266.02	-264.67	-261.47	-256.6	-250.04	-241.64	-231.32	-219.14	-205.28	-190.05	-173.91	-157.09	-139.66	-121.58	-102.81	-83.48	-64.04	-45.09	-27.07	-10.33	5.13	19.27	31.92	42.95	52.68	62.14	72.72	85.48	100.22	115.46	128.96	138.67	143.47	143.41	139.19	131.61	121.28	108.64	94.39	79.63	65.74	53.93	44.89	38.55	34.34	31.4	28.84	25.91	21.97	16.6	9.69	1.56	-6.97	-14.78	-20.64	-23.4	-22.22	-16.72	-7.15	5.57	19.93	34.09	46.32	55.43	61.13	64.01	65.23	65.99	66.97	68.25	69.4	69.93	69.53	68.26	66.42	64.35	62.29	60.31	58.27	55.97	53.19	49.76	45.61	40.74	35.17	29.03	22.46	15.68	8.93	2.38	-3.93	-10.05	-16.15	-22.29	-28.43	-34.35
143.47	143.41	139.19	131.61	121.28	108.64	94.39	79.63	65.74	53.93	44.89	38.55	34.34	31.4	28.84	25.91	21.97	16.6	9.69	1.56	-6.97	-14.78	-20.64	-23.4	-22.22	-16.72	-7.15	5.57	19.93	34.09	46.32	55.43	61.13	64.01	65.23	65.99	66.97	68.25	69.4	69.93	69.53	68.26	66.42	64.35	62.29	60.31	58.27	55.97	53.19	49.76	45.61	40.74	35.17	29.03	22.46	15.68	8.93	2.38	-3.93	-10.05	-16.15	-22.29	-28.43	-34.35	-39.8	-44.57	-48.54	-51.7	-54.15	-56.02	-57.63	-59.54	-62.52	-67.38	-74.6	-84.02	-94.65	-104.78	-112.4	-115.83	-114.08	-107.23	-96.22	-82.48	-67.48	-52.27	-37.41	-23.05	-9.2	3.98	16.1	26.62	35.04	41.12	44.95	46.95	47.68	47.72	47.5	47.27	47.15	47.2	47.47	48.05	48.96	50.11	51.19	51.77	51.36	49.65	46.59	42.43	37.61	32.61	27.81	23.4	19.36	15.53	11.67	7.59	3.1	-1.82	-7.08	-12.42	-17.55	-22.23	-26.42	-30.38
-39.8	-44.57	-48.54	-51.7	-54.15	-56.02	-57.63	-59.54	-62.52	-67.38	-74.6	-84.02	-94.65	-104.78	-112.4	-115.83	-114.08	-107.23	-96.22	-82.48	-67.48	-52.27	-37.41	-23.05	-9.2	3.98	16.1	26.62	35.04	41.12	44.95	46.95	47.68	47.72	47.5	47.27	47.15	47.2	47.47	48.05	48.96	50.11	51.19	51.77	51.36	49.65	46.59	42.43	37.61	32.61	27.81	23.4	19.36	15.53	11.67	7.59	3.1	-1.82	-7.08	-12.42	-17.55	-22.23	-26.42	-30.38	-34.68	-40	-46.9	-55.51	-65.29	-74.96	-82.79	-87.04	-86.52	-80.9	-70.84	-57.65	-42.92	-27.96	-13.67	-0.45	11.56	22.32	31.74	39.65	45.93	50.52	53.47	54.93	55.14	54.35	52.85	51	49.19	47.77	47.01	46.97	47.47	48.07	48.26	47.49	45.44	42.01	37.45	32.21	26.85	21.82	17.32	13.19	9.06	4.53	-0.53	-5.98	-11.42	-16.44	-20.83	-24.77	-28.71	-33.25	-38.92	-45.97	-54.21	-62.98	-71.12	-77.17	-79.72	-77.79	-71.19	-60.59
-34.68	-40	-46.9	-55.51	-65.29	-74.96	-82.79	-87.04	-86.52	-80.9	-70.84	-57.65	-42.92	-27.96	-13.67	-0.45	11.56	22.32	31.74	39.65	45.93	50.52	53.47	54.93	55.14	54.35	52.85	51	49.19	47.77	47.01	46.97	47.47	48.07	48.26	47.49	45.44	42.01	37.45	32.21	26.85	21.82	17.32	13.19	9.06	4.53	-0.53	-5.98	-11.42	-16.44	-20.83	-24.77	-28.71	-33.25	-38.92	-45.97	-54.21	-62.98	-71.12	-77.17	-79.72	-77.79	-71.19	-60.59	-47.26	-32.67	-18.08	-4.34	8.14	19.17	28.67	36.5	42.52	46.68	49.03	49.85	49.53	48.54	47.33	46.23	45.41	44.86	44.46	44.09	43.73	43.44	43.25	43.08	42.67	41.61	39.56	36.41	32.32	27.7	22.96	18.38	13.97	9.53	4.7	-0.72	-6.75	-13.17	-19.58	-25.58	-30.87	-35.43	-39.43	-43.27	-47.46	-52.49	-58.73	-66.23	-74.6	-82.87	-89.58	-93.12	-92.23	-86.4	-76.08	-62.57	-47.53	-32.49	-18.49	-5.98	5.07	14.83	23.36	30.56
-47.26	-32.67	-18.08	-4.34	8.14	19.17	28.67	36.5	42.52	46.68	49.03	49.85	49.53	48.54	47.33	46.23	45.41	44.86	44.46	44.09	43.73	43.44	43.25	43.08	42.67	41.61	39.56	36.41	32.32	27.7	22.96	18.38	13.97	9.53	4.7	-0.72	-6.75	-13.17	-19.58	-25.58	-30.87	-35.43	-39.43	-43.27	-47.46	-52.49	-58.73	-66.23	-74.6	-82.87	-89.58	-93.12	-92.23	-86.4	-76.08	-62.57	-47.53	-32.49	-18.49	-5.98	5.07	14.83	23.36	30.56	36.2	40.14	42.47	43.51	43.77	43.75	43.78	43.95	44.13	44.14	43.88	43.42	42.94	42.64	42.58	42.62	42.45	41.63	39.8	36.74	32.55	27.61	22.47	17.66	13.49	9.97	6.82	3.61	-0.04	-4.29	-9.09	-14.13	-19.08	-23.63	-27.67	-31.32	-34.87	-38.78	-43.53	-49.48	-56.73	-64.96	-73.24	-80.16	-84.09	-83.68	-78.3	-68.39	-55.24	-40.63	-26.19	-13.01	-1.54	8.26	16.61	23.67	29.43	33.84	36.83	38.5	39.08	38.87	38.27	37.68
36.2	40.14	42.47	43.51	43.77	43.75	43.78	43.95	44.13	44.14	43.88	43.42	42.94	42.64	42.58	42.62	42.45	41.63	39.8	36.74	32.55	27.61	22.47	17.66	13.49	9.97	6.82	3.61	-0.04	-4.29	-9.09	-14.13	-19.08	-23.63	-27.67	-31.32	-34.87	-38.78	-43.53	-49.48	-56.73	-64.96	-73.24	-80.16	-84.09	-83.68	-78.3	-68.39	-55.24	-40.63	-26.19	-13.01	-1.54	8.26	16.61	23.67	29.43	33.84	36.83	38.5	39.08	38.87	38.27	37.68	37.37	37.49	37.98	38.68	39.37	39.9	40.18	40.19	39.89	39.19	37.97	36.03	33.32	29.89	25.99	21.94	18.07	14.54	11.29	8.05	4.49	0.35	-4.43	-9.65	-14.95	-19.94	-24.38	-28.22	-31.62	-34.98	-38.73	-43.37	-49.25	-56.48	-64.7	-72.96	-79.82	-83.69	-83.27	-78.01	-68.37	-55.61	-41.45	-27.5	-14.88	-4.04	5.09	12.76	19.24	24.57	28.64	31.34	32.67	32.87	32.36	31.62	31.06	30.9	31.15	31.7	32.46	33.38	34.49	35.79
37.37	37.49	37.98	38.68	39.37	39.9	40.18	40.19	39.89	39.19	37.97	36.03	33.32	29.89	25.99	21.94	18.07	14.54	11.29	8.05	4.49	0.35	-4.43	-9.65	-14.95	-19.94	-24.38	-28.22	-31.62	-34.98	-38.73	-43.37	-49.25	-56.48	-64.7	-72.96	-79.82	-83.69	-83.27	-78.01	-68.37	-55.61	-41.45	-27.5	-14.88	-4.04	5.09	12.76	19.24	24.57	28.64	31.34	32.67	32.87	32.36	31.62	31.06	30.9	31.15	31.7	32.46	33.38	34.49	35.79	37.15	38.29	38.84	38.44	36.93	34.35	31	27.24	23.47	19.93	16.66	13.52	10.26	6.61	2.44	-2.22	-7.15	-11.98	-16.41	-20.24	-23.53	-26.49	-29.55	-33.2	-37.95	-44.17	-51.99	-61.06	-70.42	-78.58	-83.78	-84.52	-80.07	-70.8	-58.05	-43.71	-29.56	-16.79	-5.86	3.33	11.11	17.66	22.95	26.82	29.18	30.15	30.16	29.76	29.44	29.5	30	30.81	31.71	32.59	33.41	34.23	35.07	35.88	36.46	36.54	35.91	34.44	32.17	29.22
37.15	38.29	38.84	38.44	36.93	34.35	31	27.24	23.47	19.93	16.66	13.52	10.26	6.61	2.44	-2.22	-7.15	-11.98	-16.41	-20.24	-23.53	-26.49	-29.55	-33.2	-37.95	-44.17	-51.99	-61.06	-70.42	-78.58	-83.78	-84.52	-80.07	-70.8	-58.05	-43.71	-29.56	-16.79	-5.86	3.33	11.11	17.66	22.95	26.82	29.18	30.15	30.16	29.76	29.44	29.5	30	30.81	31.71	32.59	33.41	34.23	35.07	35.88	36.46	36.54	35.91	34.44	32.17	29.22	25.81	22.14	18.41	14.78	11.38	8.19	5.11	1.91	-1.61	-5.61	-10.04	-14.76	-19.5	-24.05	-28.33	-32.47	-36.83	-41.87	-48.05	-55.59	-64.28	-73.3	-81.31	-86.71	-88.05	-84.51	-76.18	-64.05	-49.67	-34.71	-20.47	-7.72	3.25	12.43	19.81	25.32	28.89	30.63	30.98	30.6	30.25	30.46	31.43	32.98	34.75	36.38	37.73	38.87	39.97	41.15	42.26	43.02	43.01	41.89	39.54	36.11	32.03	27.76	23.73	20.12	16.87	13.63	9.97	5.54
25.81	22.14	18.41	14.78	11.38	8.19	5.11	1.91	-1.61	-5.61	-10.04	-14.76	-19.5	-24.05	-28.33	-32.47	-36.83	-41.87	-48.05	-55.59	-64.28	-73.3	-81.31	-86.71	-88.05	-84.51	-76.18	-64.05	-49.67	-34.71	-20.47	-7.72	3.25	12.43	19.81	25.32	28.89	30.63	30.98	30.6	30.25	30.46	31.43	32.98	34.75	36.38	37.73	38.87	39.97	41.15	42.26	43.02	43.01	41.89	39.54	36.11	32.03	27.76	23.73	20.12	16.87	13.63	9.97	5.54	0.22	-5.74	-11.88	-17.63	-22.6	-26.73	-30.3	-33.84	-38.03	-43.41	-50.29	-58.55	-67.45	-75.72	-81.65	-83.58	-80.45	-72.19	-59.83	-45.15	-30.12	-16.19	-4.13	5.96	14.28	21.05	26.32	30.04	32.28	33.26	33.36	33.02	32.58	32.28	32.24	32.53	33.18	34.22	35.59	37.17	38.74	39.99	40.6	40.23	38.69	35.98	32.38	28.33	24.34	20.8	17.73	14.84	11.58	7.45	2.21	-3.94	-10.49	-16.8	-22.4	-27.21	-31.54	-36.04	-41.45	-48.31
0.22	-5.74	-11.88	-17.63	-22.6	-26.73	-30.3	-33.84	-38.03	-43.41	-50.29	-58.55	-67.45	-75.72	-81.65	-83.58	-80.45	-72.19	-59.83	-45.15	-30.12	-16.19	-4.13	5.96	14.28	21.05	26.32	30.04	32.28	33.26	33.36	33.02	32.58	32.28	32.24	32.53	33.18	34.22	35.59	37.17	38.74	39.99	40.6	40.23	38.69	35.98	32.38	28.33	24.34	20.8	17.73	14.84	11.58	7.45	2.21	-3.94	-10.49	-16.8	-22.4	-27.21	-31.54	-36.04	-41.45	-48.31	-56.66	-65.86	-74.55	-80.95	-83.34	-80.59	-72.6	-60.3	-45.41	-29.84	-15.17	-2.37	8.25	16.75	23.34	28.19	31.33	32.82	32.85	31.78	30.16	28.57	27.52	27.3	27.98	29.36	31.1	32.77	34.05	34.7	34.7	34.06	32.85	31.03	28.53	25.27	21.34	16.94	12.38	7.93	3.7	-0.32	-4.29	-8.29	-12.37	-16.49	-20.69	-25.16	-30.3	-36.56	-44.24	-53.17	-62.48	-70.68	-75.94	-76.66	-72.03	-62.34	-48.94	-33.75	-18.67	-5.06	6.44	15.77
-56.66	-65.86	-74.55	-80.95	-83.34	-80.59	-72.6	-60.3	-45.41	-29.84	-15.17	-2.37	8.25	16.75	23.34	28.19	31.33	32.82	32.85	31.78	30.16	28.57	27.52	27.3	27.98	29.36	31.1	32.77	34.05	34.7	34.7	34.06	32.85	31.03	28.53	25.27	21.34	16.94	12.38	7.93	3.7	-0.32	-4.29	-8.29	-12.37	-16.49	-20.69	-25.16	-30.3	-36.56	-44.24	-53.17	-62.48	-70.68	-75.94	-76.66	-72.03	-62.34	-48.94	-33.75	-18.67	-5.06	6.44	15.77	23.17	28.86	32.95	35.53	36.69	36.7	35.93	34.77	33.6	32.66	32.07	31.79	31.77	31.89	32.12	32.39	32.55	32.4	31.65	30.02	27.47	24.16	20.38	16.42	12.38	8.11	3.35	-2.1	-8.2	-14.64	-20.93	-26.65	-31.65	-36.11	-40.53	-45.6	-51.98	-60	-69.42	-79.24	-87.77	-92.97	-93.08	-87.21	-75.73	-60.21	-42.86	-25.79	-10.5	2.45	13.23	22.28	29.99	36.49	41.72	45.56	48.04	49.36	49.84	49.81	49.56	49.35	49.35	49.72
23.17	28.86	32.95	35.53	36.69	36.7	35.93	34.77	33.6	32.66	32.07	31.79	31.77	31.89	32.12	32.39	32.55	32.4	31.65	30.02	27.47	24.16	20.38	16.42	12.38	8.11	3.35	-2.1	-8.2	-14.64	-20.93	-26.65	-31.65	-36.11	-40.53	-45.6	-51.98	-60	-69.42	-79.24	-87.77	-92.97	-93.08	-87.21	-75.73	-60.21	-42.86	-25.79	-10.5	2.45	13.23	22.28	29.99	36.49	41.72	45.56	48.04	49.36	49.84	49.81	49.56	49.35	49.35	49.72	50.49	51.56	52.66	53.41	53.41	52.35	50.15	46.95	43.04	38.78	34.43	30.09	25.69	21.03	15.88	10.16	3.89	-2.66	-9.13	-15.11	-20.42	-25.16	-29.81	-35.11	-41.76	-50.1	-59.65	-69.11	-76.57	-80.01	-78.02	-70.27	-57.65	-42.04	-25.63	-10.27	2.97	13.84	22.68	29.94	35.85	40.32	43.15	44.28	43.96	42.8	41.51	40.68	40.58	41.12	42.02	42.95	43.68	44.08	44.1	43.69	42.82	41.43	39.5	37.03	33.99	30.35	26.07	21.09
50.49	51.56	52.66	53.41	53.41	52.35	50.15	46.95	43.04	38.78	34.43	30.09	25.69	21.03	15.88	10.16	3.89	-2.66	-9.13	-15.11	-20.42	-25.16	-29.81	-35.11	-41.76	-50.1	-59.65	-69.11	-76.57	-80.01	-78.02	-70.27	-57.65	-42.04	-25.63	-10.27	2.97	13.84	22.68	29.94	35.85	40.32	43.15	44.28	43.96	42.8	41.51	40.68	40.58	41.12	42.02	42.95	43.68	44.08	44.1	43.69	42.82	41.43	39.5	37.03	33.99	30.35	26.07	21.09	15.46	9.27	2.73	-3.88	-10.3	-16.31	-21.83	-26.95	-31.98	-37.38	-43.69	-51.31	-60.18	-69.57	-77.97	-83.46	-84.23	-79.28	-68.82	-54.25	-37.71	-21.3	-6.56	5.9	16.08	24.32	30.83	35.61	38.51	39.48	38.76	36.94	34.78	33.03	32.14	32.17	32.85	33.77	34.56	35.01	35.1	34.85	34.21	33.05	31.19	28.48	24.86	20.34	15.02	9.08	2.73	-3.73	-10.06	-16.07	-21.7	-27.02	-32.22	-37.58	-43.49	-50.32	-58.35	-67.41	-76.72	-84.8
15.46	9.27	2.73	-3.88	-10.3	-16.31	-21.83	-26.95	-31.98	-37.38	-43.69	-51.31	-60.18	-69.57	-77.97	-83.46	-84.23	-79.28	-68.82	-54.25	-37.71	-21.3	-6.56	5.9	16.08	24.32	30.83	35.61	38.51	39.48	38.76	36.94	34.78	33.03	32.14	32.17	32.85	33.77	34.56	35.01	35.1	34.85	34.21	33.05	31.19	28.48	24.86	20.34	15.02	9.08	2.73	-3.73	-10.06	-16.07	-21.7	-27.02	-32.22	-37.58	-43.49	-50.32	-58.35	-67.41	-76.72	-84.8	-89.83	-90.16	-84.93	-74.46	-60.11	-43.85	-27.59	-12.71	0.2	11.13	20.4	28.3	34.9	40.17	44.03	46.56	47.98	48.65	48.9	48.98	49	48.97	48.92	48.92	49.05	49.33	49.6	49.54	48.72	46.83	43.78	39.77	35.2	30.5	25.96	21.58	17.08	12.08	6.33	-0.14	-6.95	-13.58	-19.53	-24.64	-29.17	-33.72	-39.05	-45.82	-54.24	-63.93	-73.83	-82.27	-87.42	-87.7	-82.36	-71.71	-57.12	-40.58	-24.07	-9.01	3.92	14.72	23.72	31.22
-89.83	-90.16	-84.93	-74.46	-60.11	-43.85	-27.59	-12.71	0.2	11.13	20.4	28.3	34.9	40.17	44.03	46.56	47.98	48.65	48.9	48.98	49	48.97	48.92	48.92	49.05	49.33	49.6	49.54	48.72	46.83	43.78	39.77	35.2	30.5	25.96	21.58	17.08	12.08	6.33	-0.14	-6.95	-13.58	-19.53	-24.64	-29.17	-33.72	-39.05	-45.82	-54.24	-63.93	-73.83	-82.27	-87.42	-87.7	-82.36	-71.71	-57.12	-40.58	-24.07	-9.01	3.92	14.72	23.72	31.22	37.35	42.09	45.45	47.53	48.59	48.96	48.93	48.69	48.35	48.04	47.88	47.96	48.29	48.73	49	48.76	47.7	45.72	42.85	39.27	35.17	30.69	25.87	20.69	15.16	9.33	3.34	-2.61	-8.33	-13.71	-18.71	-23.42	-28.06	-32.95	-38.56	-45.34	-53.53	-62.88	-72.39	-80.44	-85.1	-84.76	-78.76	-67.59	-52.8	-36.4	-20.25	-5.56	7.16	17.92	26.92	34.27	39.96	43.93	46.21	47.02	46.78	45.94	44.98	44.23	43.87	43.89	44.13	44.33
37.35	42.09	45.45	47.53	48.59	48.96	48.93	48.69	48.35	48.04	47.88	47.96	48.29	48.73	49	48.76	47.7	45.72	42.85	39.27	35.17	30.69	25.87	20.69	15.16	9.33	3.34	-2.61	-8.33	-13.71	-18.71	-23.42	-28.06	-32.95	-38.56	-45.34	-53.53	-62.88	-72.39	-80.44	-85.1	-84.76	-78.76	-67.59	-52.8	-36.4	-20.25	-5.56	7.16	17.92	26.92	34.27	39.96	43.93	46.21	47.02	46.78	45.94	44.98	44.23	43.87	43.89	44.13	44.33	44.25	43.69	42.55	40.85	38.64	36	32.97	29.55	25.69	21.37	16.58	11.38	5.88	0.25	-5.35	-10.77	-15.89	-20.71	-25.35	-30.15	-35.57	-42.09	-49.82	-58.29	-66.31	-72.14	-74.1	-71.08	-63	-50.86	-36.36	-21.32	-7.19	5.19	15.57	23.96	30.38	34.83	37.26	37.78	36.69	34.53	31.96	29.63	28.01	27.32	27.51	28.25	29.11	29.65	29.58	28.83	27.52	25.81	23.82	21.48	18.55	14.77	9.96	4.19	-2.18	-8.67	-14.83	-20.43
44.25	43.69	42.55	40.85	38.64	36	32.97	29.55	25.69	21.37	16.58	11.38	5.88	0.25	-5.35	-10.77	-15.89	-20.71	-25.35	-30.15	-35.57	-42.09	-49.82	-58.29	-66.31	-72.14	-74.1	-71.08	-63	-50.86	-36.36	-21.32	-7.19	5.19	15.57	23.96	30.38	34.83	37.26	37.78	36.69	34.53	31.96	29.63	28.01	27.32	27.51	28.25	29.11	29.65	29.58	28.83	27.52	25.81	23.82	21.48	18.55	14.77	9.96	4.19	-2.18	-8.67	-14.83	-20.43	-25.5	-30.33	-35.31	-40.82	-47.18	-54.61	-63.11	-72.34	-81.37	-88.7	-92.55	-91.3	-84.23	-71.86	-55.88	-38.63	-22.25	-8.09	3.57	13.12	21.23	28.29	34.26	38.82	41.65	42.75	42.47	41.41	40.2	39.29	38.89	38.96	39.32	39.74	40.03	40.03	39.61	38.63	36.96	34.47	31.06	26.74	21.61	15.92	9.94	4.01	-1.68	-7.05	-12.11	-16.99	-21.79	-26.6	-31.59	-37.07	-43.41	-50.85	-59.24	-67.74	-74.85	-78.8	-78.11	-72.2	-61.62	-47.89
-25.5	-30.33	-35.31	-40.82	-47.18	-54.61	-63.11	-72.34	-81.37	-88.7	-92.55	-91.3	-84.23	-71.86	-55.88	-38.63	-22.25	-8.09	3.57	13.12	21.23	28.29	34.26	38.82	41.65	42.75	42.47	41.41	40.2	39.29	38.89	38.96	39.32	39.74	40.03	40.03	39.61	38.63	36.96	34.47	31.06	26.74	21.61	15.92	9.94	4.01	-1.68	-7.05	-12.11	-16.99	-21.79	-26.6	-31.59	-37.07	-43.41	-50.85	-59.24	-67.74	-74.85	-78.8	-78.11	-72.2	-61.62	-47.89	-32.91	-18.35	-5.25	6.04	15.59	23.55	29.93	34.6	37.46	38.62	38.4	37.33	35.92	34.55	33.37	32.38	31.43	30.39	29.19	27.81	26.25	24.4	22.1	19.07	15.08	10.03	3.88	-3.33	-11.68	-21.36	-32.5	-45.03	-58.47	-71.99	-84.61	-95.63	-104.84	-112.62	-119.75	-127.13	-135.52	-145.28	-156.27	-167.71	-178.28	-186.26	-189.87	-187.76	-179.34	-164.86	-145.24	-121.72	-95.68	-68.56	-41.75	-16.23	7.74	30.79	53.99	77.94	101.93	123.77	140.53	149.82
-32.91	-18.35	-5.25	6.04	15.59	23.55	29.93	34.6	37.46	38.62	38.4	37.33	35.92	34.55	33.37	32.38	31.43	30.39	29.19	27.81	26.25	24.4	22.1	19.07	15.08	10.03	3.88	-3.33	-11.68	-21.36	-32.5	-45.03	-58.47	-71.99	-84.61	-95.63	-104.84	-112.62	-119.75	-127.13	-135.52	-145.28	-156.27	-167.71	-178.28	-186.26	-189.87	-187.76	-179.34	-164.86	-145.24	-121.72	-95.68	-68.56	-41.75	-16.23	7.74	30.79	53.99	77.94	101.93	123.77	140.53	149.82	150.89	144.88	134.26	121.85	110.11	100.85	95.39	94.56	98.44	106	114.94	122.25	125.04	121.42	110.93	94.5	73.97	51.44	28.52	5.78	-17.51	-43.02	-72.25	-105.25	-139.73	-171.23	-194.59	-205.78	-203.48	-189.35	-167.17	-141.29	-115.3	-91.58	-71.33	-55.13	-43.17	-35.22	-30.45	-27.34	-23.96	-18.37	-9.03	5.05	24.14	47.82	74.73	102.6	128.45	149.16	162.21	166.2	161.08	147.88	128.34	104.54	78.69	52.99	29.42	9.42	-6.52	-19.04	-29.64	-40.19
150.89	144.88	134.26	121.85	110.11	100.85	95.39	94.56	98.44	106	114.94	122.25	125.04	121.42	110.93	94.5	73.97	51.44	28.52	5.78	-17.51	-43.02	-72.25	-105.25	-139.73	-171.23	-194.59	-205.78	-203.48	-189.35	-167.17	-141.29	-115.3	-91.58	-71.33	-55.13	-43.17	-35.22	-30.45	-27.34	-23.96	-18.37	-9.03	5.05	24.14	47.82	74.73	102.6	128.45	149.16	162.21	166.2	161.08	147.88	128.34	104.54	78.69	52.99	29.42	9.42	-6.52	-19.04	-29.64	-40.19	-52.11	-65.98	-81.25	-96.44	-109.47	-118.26	-121.11	-117.17	-106.67	-90.85	-71.7	-51.42	-31.94	-14.54	0.26	12.44	22.26	29.96	35.66	39.42	41.42	42.06	41.84	41.37	41.05	41.1	41.51	42.23	43.26	44.67	46.52	48.69	50.78	52.1	51.85	49.42	44.59	37.74	29.69	21.47	13.91	7.5	2.08	-2.9	-8.26	-14.69	-22.39	-30.88	-38.92	-44.8	-46.82	-43.82	-35.65	-23.22	-8.24	7.37	21.97	34.6	44.95	53.11	59.29	63.62	66.19	67.11
-52.11	-65.98	-81.25	-96.44	-109.47	-118.26	-121.11	-117.17	-106.67	-90.85	-71.7	-51.42	-31.94	-14.54	0.26	12.44	22.26	29.96	35.66	39.42	41.42	42.06	41.84	41.37	41.05	41.1	41.51	42.23	43.26	44.67	46.52	48.69	50.78	52.1	51.85	49.42	44.59	37.74	29.69	21.47	13.91	7.5	2.08	-2.9	-8.26	-14.69	-22.39	-30.88	-38.92	-44.8	-46.82	-43.82	-35.65	-23.22	-8.24	7.37	21.97	34.6	44.95	53.11	59.29	63.62	66.19	67.11	66.7	65.4	63.74	62.1	60.67	59.42	58.2	56.9	55.5	54.16	53.06	52.24	51.49	50.23	47.74	43.46	37.3	29.73	21.66	14.05	7.49	1.96	-3.07	-8.4	-14.66	-22.06	-30.29	-38.54	-45.64	-50.35	-51.49	-48.26	-40.49	-28.78	-14.43	0.83	15.3	27.67	37.27	44.06	48.44	50.97	52.12	52.18	51.26	49.48	47	44.12	41.23	38.65	36.61	35.14	34.14	33.43	32.76	31.9	30.59	28.6	25.76	22.08	17.66	12.74	7.51	2.15
66.7	65.4	63.74	62.1	60.67	59.42	58.2	56.9	55.5	54.16	53.06	52.24	51.49	50.23	47.74	43.46	37.3	29.73	21.66	14.05	7.49	1.96	-3.07	-8.4	-14.66	-22.06	-30.29	-38.54	-45.64	-50.35	-51.49	-48.26	-40.49	-28.78	-14.43	0.83	15.3	27.67	37.27	44.06	48.44	50.97	52.12	52.18	51.26	49.48	47	44.12	41.23	38.65	36.61	35.14	34.14	33.43	32.76	31.9	30.59	28.6	25.76	22.08	17.66	12.74	7.51	2.15	-3.28	-8.78	-14.46	-20.51	-27.1	-34.22	-41.46	-47.9	-52.15	-52.78	-48.79	-40.03	-27.41	-12.65	2.17	15.18	25.18	31.69	34.9	35.3	33.43	29.7	24.44	18.05	11.12	4.45	-1.02	-4.43	-5.06	-2.18	5.06	17.66	36.28	60.61	88.75	117.17	141.56	158.13	164.85	161.9	151.3	135.7	117.27	97.09	75.32	51.91	27.2	2.15	-21.94	-43.86	-62.82	-78.4	-90.37	-98.42	-102.03	-100.73	-94.32	-83.2	-68.51	-51.98	-35.64	-21.36	-10.49	-3.64
-3.28	-8.78	-14.46	-20.51	-27.1	-34.22	-41.46	-47.9	-52.15	-52.78	-48.79	-40.03	-27.41	-12.65	2.17	15.18	25.18	31.69	34.9	35.3	33.43	29.7	24.44	18.05	11.12	4.45	-1.02	-4.43	-5.06	-2.18	5.06	17.66	36.28	60.61	88.75	117.17	141.56	158.13	164.85	161.9	151.3	135.7	117.27	97.09	75.32	51.91	27.2	2.15	-21.94	-43.86	-62.82	-78.4	-90.37	-98.42	-102.03	-100.73	-94.32	-83.2	-68.51	-51.98	-35.64	-21.36	-10.49	-3.64	-0.74	-1.2	-4.19	-8.83	-14.26	-19.64	-24.07	-26.58	-26.34	-22.87	-16.28	-7.43	2.2	10.82	16.84	19.27	18.05	13.94	8.21	2.15	-3.42	-8.35	-13.14	-18.67	-25.76	-34.73	-45.18	-55.88	-65.06	-70.82	-71.74	-67.26	-57.79	-44.57	-29.23	-13.43	1.41	14.24	24.38	31.57	35.99	38.23	39.11	39.42	39.66	39.93	40.12	40.09	39.96	40.06	40.83	42.51	45	47.79	50.17	51.4	50.91	48.41	43.93	37.74	30.28	22.16	13.97	6.18
-0.74	-1.2	-4.19	-8.83	-14.26	-19.64	-24.07	-26.58	-26.34	-22.87	-16.28	-7.43	2.2	10.82	16.84	19.27	18.05	13.94	8.21	2.15	-3.42	-8.35	-13.14	-18.67	-25.76	-34.73	-45.18	-55.88	-65.06	-70.82	-71.74	-67.26	-57.79	-44.57	-29.23	-13.43	1.41	14.24	24.38	31.57	35.99	38.23	39.11	39.42	39.66	39.93	40.12	40.09	39.96	40.06	40.83	42.51	45	47.79	50.17	51.4	50.91	48.41	43.93	37.74	30.28	22.16	13.97	6.18	-0.93	-7.44	-13.72	-20.34	-27.82	-36.39	-45.72	-54.84	-62.26	-66.43	-66.16	-61.17	-52.16	-40.68	-28.49	-17.07	-7.21	1.01	7.91	13.78	18.7	22.49	24.96	26.11	26.25	25.84	25.37	25.12	25.1	25.13	24.94	24.34	23.21	21.56	19.45	16.98	14.24	11.27	8.07	4.58	0.71	-3.58	-8.27	-13.17	-18.02	-22.49	-26.33	-29.46	-32.01	-34.32	-36.79	-39.86	-43.8	-48.63	-53.93	-58.86	-62.2	-62.73	-59.56	-52.53	-42.29	-30.12	-17.51	-5.74
-0.93	-7.44	-13.72	-20.34	-27.82	-36.39	-45.72	-54.84	-62.26	-66.43	-66.16	-61.17	-52.16	-40.68	-28.49	-17.07	-7.21	1.01	7.91	13.78	18.7	22.49	24.96	26.11	26.25	25.84	25.37	25.12	25.1	25.13	24.94	24.34	23.21	21.56	19.45	16.98	14.24	11.27	8.07	4.58	0.71	-3.58	-8.27	-13.17	-18.02	-22.49	-26.33	-29.46	-32.01	-34.32	-36.79	-39.86	-43.8	-48.63	-53.93	-58.86	-62.2	-62.73	-59.56	-52.53	-42.29	-30.12	-17.51	-5.74	4.41	12.69	19.18	24.13	27.75	30.18	31.52	31.93	31.61	30.78	29.67	28.46	27.3	26.31	25.61	25.28	25.31	25.61	25.9	25.85	25.14	23.6	21.24	18.24	14.82	11.19	7.41	3.45	-0.74	-5.19	-9.81	-14.41	-18.75	-22.64	-25.98	-28.87	-31.53	-34.33	-37.62	-41.59	-46.07	-50.51	-53.93	-55.23	-53.49	-48.27	-39.86	-29.21	-17.67	-6.59	3.02	10.63	16.22	20.04	22.48	23.85	24.4	24.29	23.67	22.67	21.48	20.27	19.24	18.54
4.41	12.69	19.18	24.13	27.75	30.18	31.52	31.93	31.61	30.78	29.67	28.46	27.3	26.31	25.61	25.28	25.31	25.61	25.9	25.85	25.14	23.6	21.24	18.24	14.82	11.19	7.41	3.45	-0.74	-5.19	-9.81	-14.41	-18.75	-22.64	-25.98	-28.87	-31.53	-34.33	-37.62	-41.59	-46.07	-50.51	-53.93	-55.23	-53.49	-48.27	-39.86	-29.21	-17.67	-6.59	3.02	10.63	16.22	20.04	22.48	23.85	24.4	24.29	23.67	22.67	21.48	20.27	19.24	18.54	18.24	18.29	18.57	18.92	19.2	19.27	19.03	18.36	17.14	15.29	12.81	9.81	6.45	2.96	-0.49	-3.76	-6.76	-9.43	-11.71	-13.62	-15.27	-16.87	-18.73	-21.18	-24.44	-28.43	-32.7	-36.38	-38.39	-37.77	-34	-27.24	-18.3	-8.45	1.03	9.19	15.58	20.24	23.45	25.56	26.77	27.17	26.78	25.71	24.16	22.49	21.04	20.12	19.96	20.7	22.54	25.65	30.24	36.38	43.95	52.55	61.64	70.72	79.4	87.52	95	101.78	107.79	113
18.24	18.29	18.57	18.92	19.2	19.27	19.03	18.36	17.14	15.29	12.81	9.81	6.45	2.96	-0.49	-3.76	-6.76	-9.43	-11.71	-13.62	-15.27	-16.87	-18.73	-21.18	-24.44	-28.43	-32.7	-36.38	-38.39	-37.77	-34	-27.24	-18.3	-8.45	1.03	9.19	15.58	20.24	23.45	25.56	26.77	27.17	26.78	25.71	24.16	22.49	21.04	20.12	19.96	20.7	22.54	25.65	30.24	36.38	43.95	52.55	61.64	70.72	79.4	87.52	95	101.78	107.79	113	117.48	121.45	125.24	129.21	133.61	138.57	144.08	150.08	156.46	163.15	170.06	177.22	184.79	193.06	202.31	212.47	222.96	232.62	240.07	244.03	243.79	239.26	230.81	218.98	204.29	187.18	168.14	147.76	126.69	105.49	84.47	63.7	43.13	22.72	2.61	-16.98	-35.77	-53.44	-69.73	-84.5	-97.81	-110.06	-121.9	-134.03	-146.81	-160	-172.78	-184	-192.65	-198.24	-200.93	-201.47	-200.83	-199.87	-199.09	-198.4	-197.13	-194.23	-188.61	-179.59	-167.24	-152.38	-136.4	-120.78
117.48	121.45	125.24	129.21	133.61	138.57	144.08	150.08	156.46	163.15	170.06	177.22	184.79	193.06	202.31	212.47	222.96	232.62	240.07	244.03	243.79	239.26	230.81	218.98	204.29	187.18	168.14	147.76	126.69	105.49	84.47	63.7	43.13	22.72	2.61	-16.98	-35.77	-53.44	-69.73	-84.5	-97.81	-110.06	-121.9	-134.03	-146.81	-160	-172.78	-184	-192.65	-198.24	-200.93	-201.47	-200.83	-199.87	-199.09	-198.4	-197.13	-194.23	-188.61	-179.59	-167.24	-152.38	-136.4	-120.78	-106.73	-94.92	-85.57	-78.62	-73.85	-70.97	-69.61	-69.29	-69.52	-69.87	-70	-69.69	-68.76	-67.03	-64.43	-61.02	-57.15	-53.44	-50.61	-49.32	-50.13	-53.32	-58.91	-66.63	-75.79	-85.32	-93.93	-100.5	-104.37	-105.61	-104.96	-103.45	-101.94	-100.72	-99.35	-96.86	-92.18	-84.61	-74.15	-61.57	-48.22	-35.57	-24.79	-16.55	-10.9	-7.55	-6.05	-6.09	-7.45	-10	-13.52	-17.62	-21.79	-25.4	-27.98	-29.28	-29.41	-28.81	-28.02	-27.59	-27.76	-28.51	-29.61	-30.77
-106.73	-94.92	-85.57	-78.62	-73.85	-70.97	-69.61	-69.29	-69.52	-69.87	-70	-69.69	-68.76	-67.03	-64.43	-61.02	-57.15	-53.44	-50.61	-49.32	-50.13	-53.32	-58.91	-66.63	-75.79	-85.32	-93.93	-100.5	-104.37	-105.61	-104.96	-103.45	-101.94	-100.72	-99.35	-96.86	-92.18	-84.61	-74.15	-61.57	-48.22	-35.57	-24.79	-16.55	-10.9	-7.55	-6.05	-6.09	-7.45	-10	-13.52	-17.62	-21.79	-25.4	-27.98	-29.28	-29.41	-28.81	-28.02	-27.59	-27.76	-28.51	-29.61	-30.77	-31.8	-32.72	-33.76	-35.35	-38	-42.18	-48.09	-55.43	-63.31	-70.34	-74.99	-76.16	-73.6	-68.11	-61.2	-54.62	-49.66	-46.75	-45.49	-44.96	-44.22	-42.67	-40.27	-37.33	-34.3	-31.47	-28.94	-26.69	-24.75	-23.33	-22.77	-23.41	-25.36	-28.39	-31.97	-35.42	-38.29	-40.39	-41.98	-43.47	-45.25	-47.32	-49.21	-49.88	-47.85	-41.58	-29.71	-11.66	12.09	39.81	68.77	95.77	117.98	133.55	142.04	144.28	141.89	136.65	130	122.75	115.11	106.83	97.49	86.64
-31.8	-32.72	-33.76	-35.35	-38	-42.18	-48.09	-55.43	-63.31	-70.34	-74.99	-76.16	-73.6	-68.11	-61.2	-54.62	-49.66	-46.75	-45.49	-44.96	-44.22	-42.67	-40.27	-37.33	-34.3	-31.47	-28.94	-26.69	-24.75	-23.33	-22.77	-23.41	-25.36	-28.39	-31.97	-35.42	-38.29	-40.39	-41.98	-43.47	-45.25	-47.32	-49.21	-49.88	-47.85	-41.58	-29.71	-11.66	12.09	39.81	68.77	95.77	117.98	133.55	142.04	144.28	141.89	136.65	130	122.75	115.11	106.83	97.49	86.64	74.03	59.68	43.84	26.98	9.59	-7.86	-24.95	-41.28	-56.44	-69.91	-81.29	-90.38	-97.28	-102.33	-105.94	-108.41	-109.86	-110.28	-109.62	-107.88	-105.07	-101.13	-95.83	-88.9	-80.18	-69.72	-57.73	-44.41	-29.85	-14.06	2.8	20.09	36.51	50.35	59.97	64.45	63.8	59.02	51.59	42.96	34.15	25.75	17.92	10.65	3.77	-3.12	-10.73	-19.94	-31.51	-45.63	-61.71	-78.44	-94.23	-107.79	-118.58	-126.89	-133.58	-139.62	-145.57	-151.23	-155.62	-157.25	-154.56	-146.47
74.03	59.68	43.84	26.98	9.59	-7.86	-24.95	-41.28	-56.44	-69.91	-81.29	-90.38	-97.28	-102.33	-105.94	-108.41	-109.86	-110.28	-109.62	-107.88	-105.07	-101.13	-95.83	-88.9	-80.18	-69.72	-57.73	-44.41	-29.85	-14.06	2.8	20.09	36.51	50.35	59.97	64.45	63.8	59.02	51.59	42.96	34.15	25.75	17.92	10.65	3.77	-3.12	-10.73	-19.94	-31.51	-45.63	-61.71	-78.44	-94.23	-107.79	-118.58	-126.89	-133.58	-139.62	-145.57	-151.23	-155.62	-157.25	-154.56	-146.47	-132.77	-114.2	-92.22	-68.57	-44.71	-21.58	0.43	21.21	40.55	57.94	72.66	84.07	91.89	96.33	97.96	97.38	95.05	91.16	85.76	78.91	70.84	61.91	52.52	43.07	33.88	25.24	17.36	10.37	4.15	-1.59	-7.29	-13.43	-20.45	-28.69	-38.33	-49.18	-60.43	-70.53	-77.39	-79.01	-74.17	-62.93	-46.71	-27.72	-8.27	9.88	25.73	38.95	49.5	57.45	62.84	65.8	66.63	65.76	63.72	60.98	57.93	54.83	51.94	49.49	47.76	47.04	47.45	48.94
-132.77	-114.2	-92.22	-68.57	-44.71	-21.58	0.43	21.21	40.55	57.94	72.66	84.07	91.89	96.33	97.96	97.38	95.05	91.16	85.76	78.91	70.84	61.91	52.52	43.07	33.88	25.24	17.36	10.37	4.15	-1.59	-7.29	-13.43	-20.45	-28.69	-38.33	-49.18	-60.43	-70.53	-77.39	-79.01	-74.17	-62.93	-46.71	-27.72	-8.27	9.88	25.73	38.95	49.5	57.45	62.84	65.8	66.63	65.76	63.72	60.98	57.93	54.83	51.94	49.49	47.76	47.04	47.45	48.94	51.14	53.51	55.45	56.57	56.74	56.08	54.78	52.87	50.1	45.97	39.91	31.6	21.21	9.64	-1.54	-10.31	-14.76	-13.52	-6.32	5.92	21.3	37.5	52.4	64.61	73.63	79.65	83.19	84.69	84.3	81.98	77.66	71.55	64.24	56.62	49.55	43.58	38.76	34.64	30.54	25.86	20.34	14.1	7.52	1.03	-5.09	-10.83	-16.44	-22.32	-28.93	-36.65	-45.65	-55.62	-65.63	-74.06	-78.8	-77.76	-69.54	-53.97	-32.34	-7.06	19	43.29	64.06	80.55
51.14	53.51	55.45	56.57	56.74	56.08	54.78	52.87	50.1	45.97	39.91	31.6	21.21	9.64	-1.54	-10.31	-14.76	-13.52	-6.32	5.92	21.3	37.5	52.4	64.61	73.63	79.65	83.19	84.69	84.3	81.98	77.66	71.55	64.24	56.62	49.55	43.58	38.76	34.64	30.54	25.86	20.34	14.1	7.52	1.03	-5.09	-10.83	-16.44	-22.32	-28.93	-36.65	-45.65	-55.62	-65.63	-74.06	-78.8	-77.76	-69.54	-53.97	-32.34	-7.06	19	43.29	64.06	80.55	92.72	100.96	105.79	107.74	107.34	105.1	101.41	96.51	90.57	83.79	76.55	69.5	63.42	58.93	56.2	54.82	53.92	52.45	49.58	44.98	38.99	32.52	26.77	22.97	21.95	23.86	28.14	33.64	39.13	43.86	48.05	52.95	60.41	72.15	88.9	109.91	132.86	154.5	171.42	181.04	182.3	175.75	163.18	146.94	129.18	111.33	94.03	77.21	60.41	43.01	24.41	4.32	-17.06	-38.83	-59.66	-78.23	-93.83	-106.64	-117.58	-127.6	-137.12	-145.75	-152.68	-157.33
92.72	100.96	105.79	107.74	107.34	105.1	101.41	96.51	90.57	83.79	76.55	69.5	63.42	58.93	56.2	54.82	53.92	52.45	49.58	44.98	38.99	32.52	26.77	22.97	21.95	23.86	28.14	33.64	39.13	43.86	48.05	52.95	60.41	72.15	88.9	109.91	132.86	154.5	171.42	181.04	182.3	175.75	163.18	146.94	129.18	111.33	94.03	77.21	60.41	43.01	24.41	4.32	-17.06	-38.83	-59.66	-78.23	-93.83	-106.64	-117.58	-127.6	-137.12	-145.75	-152.68	-157.33	-159.83	-161.06	-162.17	-164.08	-167.13	-171.06	-175.16	-178.38	-179.39	-176.61	-168.55	-154.29	-133.98	-109.1	-82.1	-55.8	-32.68	-14.28	-1.04	7.48	12.24	14.34	14.82	14.51	14.01	13.77	14.04	15.01	16.7	19.02	21.75	24.53	26.97	28.75	29.66	29.6	28.58	26.52	23.31	18.8	12.93	5.85	-2.05	-10.3	-18.62	-27.06	-35.93	-45.51	-55.53	-64.95	-71.98	-74.61	-71.35	-61.81	-46.91	-28.49	-8.83	10.11	26.94	40.94	51.79	59.42	63.92	65.52
-159.83	-161.06	-162.17	-164.08	-167.13	-171.06	-175.16	-178.38	-179.39	-176.61	-168.55	-154.29	-133.98	-109.1	-82.1	-55.8	-32.68	-14.28	-1.04	7.48	12.24	14.34	14.82	14.51	14.01	13.77	14.04	15.01	16.7	19.02	21.75	24.53	26.97	28.75	29.66	29.6	28.58	26.52	23.31	18.8	12.93	5.85	-2.05	-10.3	-18.62	-27.06	-35.93	-45.51	-55.53	-64.95	-71.98	-74.61	-71.35	-61.81	-46.91	-28.49	-8.83	10.11	26.94	40.94	51.79	59.42	63.92	65.52	64.7	62.14	58.6	54.72	50.88	47.19	43.58	40.04	36.69	33.85	31.89	31.08	31.43	32.54	33.74	34.2	33.23	30.45	25.89	20	13.39	6.62	-0.03	-6.63	-13.6	-21.44	-30.49	-40.62	-51	-60.14	-66.18	-67.42	-62.88	-52.68	-38.07	-21.18	-4.36	10.38	21.73	29.18	32.9	33.45	31.49	27.68	22.62	16.79	10.63	4.49	-1.29	-6.34	-10.25	-12.51	-12.51	-9.62	-3.34	6.62	20.09	36.49	54.76	73.56	91.45	107.13	119.74	128.95
64.7	62.14	58.6	54.72	50.88	47.19	43.58	40.04	36.69	33.85	31.89	31.08	31.43	32.54	33.74	34.2	33.23	30.45	25.89	20	13.39	6.62	-0.03	-6.63	-13.6	-21.44	-30.49	-40.62	-51	-60.14	-66.18	-67.42	-62.88	-52.68	-38.07	-21.18	-4.36	10.38	21.73	29.18	32.9	33.45	31.49	27.68	22.62	16.79	10.63	4.49	-1.29	-6.34	-10.25	-12.51	-12.51	-9.62	-3.34	6.62	20.09	36.49	54.76	73.56	91.45	107.13	119.74	128.95	134.95	138.28	139.56	139.17	137.24	133.7	128.78	123.34	119.08	118.23	122.9	134.2	151.51	172.52	193.86	212.3	225.82	234.1	238.17	239.5	239.13	237.25	233.41	227.19	218.63	208.44	197.76	187.71	179.11	172.27	166.87	161.88	155.57	145.77	130.5	108.58	80.21	47.08	11.92	-22.27	-53.04	-78.94	-99.69	-115.84	-128.44	-138.61	-147.25	-154.88	-161.7	-167.54	-172.02	-174.62	-174.74	-171.82	-165.67	-156.67	-146.01	-135.52	-127.21	-122.66	-122.4	-125.69	-130.87	-136.05
134.95	138.28	139.56	139.17	137.24	133.7	128.78	123.34	119.08	118.23	122.9	134.2	151.51	172.52	193.86	212.3	225.82	234.1	238.17	239.5	239.13	237.25	233.41	227.19	218.63	208.44	197.76	187.71	179.11	172.27	166.87	161.88	155.57	145.77	130.5	108.58	80.21	47.08	11.92	-22.27	-53.04	-78.94	-99.69	-115.84	-128.44	-138.61	-147.25	-154.88	-161.7	-167.54	-172.02	-174.62	-174.74	-171.82	-165.67	-156.67	-146.01	-135.52	-127.21	-122.66	-122.4	-125.69	-130.87	-136.05	-139.98	-142.59	-145.03	-148.96	-155.73	-165.59	-177.49	-189.53	-199.85	-207.4	-212.31	-215.54	-218.29	-221.21	-224.16	-226.35	-226.64	-223.87	-217.04	-205.45	-189.09	-169.21	-148.73	-131.97	-123.36	-125.56	-137.8	-155.54	-171.88	-180.09	-176.23	-160.36	-136	-107.97	-79.93	-52.91	-25.41	4.83	38.7	74.22	106.6	129.98	139.94	135.69	120.36	99.94	80.69	66.81	59.42	57.08	57.51	58.96	60.92	63.44	66.25	68.04	66.82	60.8	49.29	33.13	14.35	-4.68	-22	-36.49
-139.98	-142.59	-145.03	-148.96	-155.73	-165.59	-177.49	-189.53	-199.85	-207.4	-212.31	-215.54	-218.29	-221.21	-224.16	-226.35	-226.64	-223.87	-217.04	-205.45	-189.09	-169.21	-148.73	-131.97	-123.36	-125.56	-137.8	-155.54	-171.88	-180.09	-176.23	-160.36	-136	-107.97	-79.93	-52.91	-25.41	4.83	38.7	74.22	106.6	129.98	139.94	135.69	120.36	99.94	80.69	66.81	59.42	57.08	57.51	58.96	60.92	63.44	66.25	68.04	66.82	60.8	49.29	33.13	14.35	-4.68	-22	-36.49	-47.81	-55.95	-60.94	-62.54	-60.42	-54.36	-44.68	-32.37	-19.03	-6.49	3.68	10.54	13.81	13.69	10.59	4.97	-2.6	-11.31	-20.16	-28.13	-34.54	-39.15	-42.13	-43.71	-43.99	-42.8	-39.87	-35.18	-29.15	-22.58	-16.43	-11.53	-8.35	-7.07	-7.68	-10.06	-13.86	-18.36	-22.47	-24.91	-24.69	-21.41	-15.48	-7.79	0.83	10.11	20.39	32.26	45.85	60.4	74.22	85.25	91.81	93.39	90.73	85.55	79.81	74.92	71.33	68.51	65.43	61.21	55.61	49.2
-47.81	-55.95	-60.94	-62.54	-60.42	-54.36	-44.68	-32.37	-19.03	-6.49	3.68	10.54	13.81	13.69	10.59	4.97	-2.6	-11.31	-20.16	-28.13	-34.54	-39.15	-42.13	-43.71	-43.99	-42.8	-39.87	-35.18	-29.15	-22.58	-16.43	-11.53	-8.35	-7.07	-7.68	-10.06	-13.86	-18.36	-22.47	-24.91	-24.69	-21.41	-15.48	-7.79	0.83	10.11	20.39	32.26	45.85	60.4	74.22	85.25	91.81	93.39	90.73	85.55	79.81	74.92	71.33	68.51	65.43	61.21	55.61	49.2	43.07	38.3	35.42	34.08	33.17	31.16	26.61	18.67	7.38	-6.18	-20.12	-32.12	-40.07	-42.67	-39.72	-32.13	-21.5	-9.64	1.93	12.16	20.44	26.38	29.74	30.3	28.01	23.07	15.97	7.55	-1.22	-9.35	-16.07	-20.97	-23.98	-25.29	-25.1	-23.41	-19.93	-14.07	-5.25	6.89	22.18	39.79	58.25	75.66	89.93	99.24	102.55	99.98	93.11	84.73	78.13	75.99	79.41	87.36	97.07	104.98	108.06	104.63	94.64	79.29	60.3	39.41	18.09	-2.36
43.07	38.3	35.42	34.08	33.17	31.16	26.61	18.67	7.38	-6.18	-20.12	-32.12	-40.07	-42.67	-39.72	-32.13	-21.5	-9.64	1.93	12.16	20.44	26.38	29.74	30.3	28.01	23.07	15.97	7.55	-1.22	-9.35	-16.07	-20.97	-23.98	-25.29	-25.1	-23.41	-19.93	-14.07	-5.25	6.89	22.18	39.79	58.25	75.66	89.93	99.24	102.55	99.98	93.11	84.73	78.13	75.99	79.41	87.36	97.07	104.98	108.06	104.63	94.64	79.29	60.3	39.41	18.09	-2.36	-20.78	-36.13	-47.74	-55.53	-60.04	-62.23	-63.1	-63.39	-63.42	-63.12	-62.39	-61.23	-60	-59.3	-59.85	-62.14	-66.21	-71.5	-76.94	-81.18	-82.93	-81.18	-75.37	-65.44	-51.73	-34.92	-15.95	4.08	23.97	42.49	58.48	70.96	79.13	82.54	81.02	74.93	65.08	52.71	39.24	25.96	13.83	3.36	-5.14	-11.5	-15.52	-17.16	-16.65	-14.62	-12.07	-9.98	-9.04	-9.27	-9.96	-9.61	-6.21	2.42	17.88	40.58	69.1	100.14	129.29	152.21	166.07	170.32
-20.78	-36.13	-47.74	-55.53	-60.04	-62.23	-63.1	-63.39	-63.42	-63.12	-62.39	-61.23	-60	-59.3	-59.85	-62.14	-66.21	-71.5	-76.94	-81.18	-82.93	-81.18	-75.37	-65.44	-51.73	-34.92	-15.95	4.08	23.97	42.49	58.48	70.96	79.13	82.54	81.02	74.93	65.08	52.71	39.24	25.96	13.83	3.36	-5.14	-11.5	-15.52	-17.16	-16.65	-14.62	-12.07	-9.98	-9.04	-9.27	-9.96	-9.61	-6.21	2.42	17.88	40.58	69.1	100.14	129.29	152.21	166.07	170.32	166.51	157.29	145.09	131.23	115.73	97.97	77.38	54.08	28.91	3.07	-22.29	-46.26	-68.21	-87.62	-104	-116.98	-126.36	-132.27	-135.16	-135.71	-134.82	-133.55	-132.96	-133.87	-136.46	-139.89	-142.27	-140.95	-133.33	-117.8	-94.41	-65.1	-33.22	-2.56	23.72	43.86	57.71	66.3	71.17	73.57	74.12	72.79	69.22	63.13	54.58	43.98	31.97	19.27	6.64	-5.17	-15.34	-23.1	-27.8	-29.19	-27.48	-23.46	-18.37	-13.7	-10.91	-11.07	-14.32	-19.7	-25.11	-27.76
166.51	157.29	145.09	131.23	115.73	97.97	77.38	54.08	28.91	3.07	-22.29	-46.26	-68.21	-87.62	-104	-116.98	-126.36	-132.27	-135.16	-135.71	-134.82	-133.55	-132.96	-133.87	-136.46	-139.89	-142.27	-140.95	-133.33	-117.8	-94.41	-65.1	-33.22	-2.56	23.72	43.86	57.71	66.3	71.17	73.57	74.12	72.79	69.22	63.13	54.58	43.98	31.97	19.27	6.64	-5.17	-15.34	-23.1	-27.8	-29.19	-27.48	-23.46	-18.37	-13.7	-10.91	-11.07	-14.32	-19.7	-25.11	-27.76	-25.02	-15.23	1.77	24.59	50.75	77.38	101.81	121.93	136.33	144.23	145.57	141.03	132.03	120.47	108.33	97.1	87.42	79.01	70.91	61.97	51.31	38.67	24.42	9.46	-5.15	-18.44	-29.81	-39.15	-46.9	-53.86	-60.96	-68.88	-77.59	-86.24	-93.22	-96.63	-94.91	-87.36	-74.5	-57.86	-39.64	-22.05	-6.86	4.94	13.08	17.75	19.34	18.28	15.03	10.23	4.75	-0.43	-4.4	-6.73	-7.55	-7.48	-7.38	-7.88	-9.23	-11.26	-13.61	-15.97	-18.32	-20.99
-25.02	-15.23	1.77	24.59	50.75	77.38	101.81	121.93	136.33	144.23	145.57	141.03	132.03	120.47	108.33	97.1	87.42	79.01	70.91	61.97	51.31	38.67	24.42	9.46	-5.15	-18.44	-29.81	-39.15	-46.9	-53.86	-60.96	-68.88	-77.59	-86.24	-93.22	-96.63	-94.91	-87.36	-74.5	-57.86	-39.64	-22.05	-6.86	4.94	13.08	17.75	19.34	18.28	15.03	10.23	4.75	-0.43	-4.4	-6.73	-7.55	-7.48	-7.38	-7.88	-9.23	-11.26	-13.61	-15.97	-18.32	-20.99	-24.54	-29.48	-35.97	-43.64	-51.49	-58.11	-62.02	-62.14	-57.98	-49.8	-38.41	-24.89	-10.37	4.09	17.53	29.03	37.73	43.05	44.82	43.46	39.87	35.15	30.24	25.74	21.8	18.28	15.05	12.1	9.6	7.7	6.43	5.61	4.8	3.5	1.16	-2.65	-8.15	-15.24	-23.35	-31.34	-37.67	-40.72	-39.29	-33.05	-22.67	-9.71	3.94	16.54	26.94	34.67	39.75	42.43	42.9	41.34	37.93	33.07	27.37	21.53	16.16	11.54	7.68	4.32	1.25	-1.67
-24.54	-29.48	-35.97	-43.64	-51.49	-58.11	-62.02	-62.14	-57.98	-49.8	-38.41	-24.89	-10.37	4.09	17.53	29.03	37.73	43.05	44.82	43.46	39.87	35.15	30.24	25.74	21.8	18.28	15.05	12.1	9.6	7.7	6.43	5.61	4.8	3.5	1.16	-2.65	-8.15	-15.24	-23.35	-31.34	-37.67	-40.72	-39.29	-33.05	-22.67	-9.71	3.94	16.54	26.94	34.67	39.75	42.43	42.9	41.34	37.93	33.07	27.37	21.53	16.16	11.54	7.68	4.32	1.25	-1.67	-4.41	-6.91	-9.18	-11.44	-14.08	-17.58	-22.36	-28.5	-35.62	-42.74	-48.45	-51.21	-49.84	-43.92	-33.94	-21.18	-7.3	6.09	17.81	27.21	34.04	38.32	40.23	40.02	38.06	34.8	30.71	26.16	21.45	16.74	12.16	7.84	3.99	0.83	-1.47	-2.87	-3.5	-3.67	-3.75	-4.16	-5.27	-7.42	-10.79	-15.29	-20.39	-25.06	-27.99	-27.93	-24.1	-16.52	-6.03	6.01	18.08	28.9	37.57	43.54	46.59	46.77	44.42	40.22	35	29.56	24.35	19.38
-4.41	-6.91	-9.18	-11.44	-14.08	-17.58	-22.36	-28.5	-35.62	-42.74	-48.45	-51.21	-49.84	-43.92	-33.94	-21.18	-7.3	6.09	17.81	27.21	34.04	38.32	40.23	40.02	38.06	34.8	30.71	26.16	21.45	16.74	12.16	7.84	3.99	0.83	-1.47	-2.87	-3.5	-3.67	-3.75	-4.16	-5.27	-7.42	-10.79	-15.29	-20.39	-25.06	-27.99	-27.93	-24.1	-16.52	-6.03	6.01	18.08	28.9	37.57	43.54	46.59	46.77	44.42	40.22	35	29.56	24.35	19.38	14.32	8.77	2.54	-4.14	-10.76	-16.67	-21.25	-24.18	-25.48	-25.53	-25.07	-25.01	-26.1	-28.67	-32.37	-36.21	-38.92	-39.3	-36.6	-30.68	-21.85	-10.68	2.09	15.63	28.95	40.92	50.39	56.39	58.4	56.57	51.68	44.96	37.7	30.82	24.67	19.02	13.33	7.09	0.23	-6.78	-12.98	-17.21	-18.53	-16.58	-11.82	-5.56	0.23	3.42	2.42	-3.14	-12.03	-21.6	-28.64	-30.52	-26.23	-16.84	-5.05	5.86	13.18	15.56	13.04	6.59	-2.58	-13.47
14.32	8.77	2.54	-4.14	-10.76	-16.67	-21.25	-24.18	-25.48	-25.53	-25.07	-25.01	-26.1	-28.67	-32.37	-36.21	-38.92	-39.3	-36.6	-30.68	-21.85	-10.68	2.09	15.63	28.95	40.92	50.39	56.39	58.4	56.57	51.68	44.96	37.7	30.82	24.67	19.02	13.33	7.09	0.23	-6.78	-12.98	-17.21	-18.53	-16.58	-11.82	-5.56	0.23	3.42	2.42	-3.14	-12.03	-21.6	-28.64	-30.52	-26.23	-16.84	-5.05	5.86	13.18	15.56	13.04	6.59	-2.58	-13.47	-25.42	-38	-50.9	-63.89	-76.79	-89.4	-101.28	-111.64	-119.34	-123.17	-122.36	-116.9	-107.83	-97.05	-87	-80.06	-78.04	-81.5	-89.34	-98.93	-106.49	-108.16	-100.94	-83.38	-55.67	-19.22	23.86	71.16	119.99	167.42	210.26	245.48	270.8	285.26	289.46	285.39	275.85	263.85	251.97	242.02	234.83	230.39	228.06	226.95	226.34	225.95	225.96	226.83	229.13	233.35	239.74	248.11	257.52	266.27	272.2	273.46	269.33	260.56	248.96	236.36	223.62	210.2	194.72	175.97
-25.42	-38	-50.9	-63.89	-76.79	-89.4	-101.28	-111.64	-119.34	-123.17	-122.36	-116.9	-107.83	-97.05	-87	-80.06	-78.04	-81.5	-89.34	-98.93	-106.49	-108.16	-100.94	-83.38	-55.67	-19.22	23.86	71.16	119.99	167.42	210.26	245.48	270.8	285.26	289.46	285.39	275.85	263.85	251.97	242.02	234.83	230.39	228.06	226.95	226.34	225.95	225.96	226.83	229.13	233.35	239.74	248.11	257.52	266.27	272.2	273.46	269.33	260.56	248.96	236.36	223.62	210.2	194.72	175.97	153.87	129.7	105.45	82.89	62.84	45.09	28.81	13.2	-2.24	-17.7	-33.24	-49.04	-65.44	-82.85	-101.69	-122.33	-145.06	-170.32	-198.87	-231.71	-269.62	-312.43	-358.34	-403.64	-443.26	-471.99	-485.98	-484.01	-467.73	-441.02	-408.67	-374.99	-342.96	-314.08	-288.71	-266.57	-247.02	-229.27	-212.42	-195.65	-178.4	-160.59	-142.64	-125.38	-109.66	-96.06	-84.61	-74.92	-66.32	-58.18	-50.2	-42.57	-35.93	-31.15	-29.09	-30.26	-34.63	-41.48	-49.51	-56.96	-62.01	-63.1	-59.36	-50.89
153.87	129.7	105.45	82.89	62.84	45.09	28.81	13.2	-2.24	-17.7	-33.24	-49.04	-65.44	-82.85	-101.69	-122.33	-145.06	-170.32	-198.87	-231.71	-269.62	-312.43	-358.34	-403.64	-443.26	-471.99	-485.98	-484.01	-467.73	-441.02	-408.67	-374.99	-342.96	-314.08	-288.71	-266.57	-247.02	-229.27	-212.42	-195.65	-178.4	-160.59	-142.64	-125.38	-109.66	-96.06	-84.61	-74.92	-66.32	-58.18	-50.2	-42.57	-35.93	-31.15	-29.09	-30.26	-34.63	-41.48	-49.51	-56.96	-62.01	-63.1	-59.36	-50.89	-38.72	-24.56	-10.24	2.8	13.81	22.67	29.56	34.61	37.76	38.83	37.81	35.09	31.46	27.84	24.95	23.03	21.84	20.88	19.78	18.43	17.04	15.87	15.06	14.36	13.26	11.08	7.24	1.45	-6.13	-14.78	-23.25	-29.89	-33.04	-31.44	-24.59	-12.94	2.26	19.35	36.67	52.83	66.94	78.55	87.63	94.48	99.59	103.47	106.46	108.72	110.29	111.28	111.98	112.71	113.62	114.46	114.53	113.03	109.49	104.08	97.65	91.33	85.91	81.43	76.93	70.83
-38.72	-24.56	-10.24	2.8	13.81	22.67	29.56	34.61	37.76	38.83	37.81	35.09	31.46	27.84	24.95	23.03	21.84	20.88	19.78	18.43	17.04	15.87	15.06	14.36	13.26	11.08	7.24	1.45	-6.13	-14.78	-23.25	-29.89	-33.04	-31.44	-24.59	-12.94	2.26	19.35	36.67	52.83	66.94	78.55	87.63	94.48	99.59	103.47	106.46	108.72	110.29	111.28	111.98	112.71	113.62	114.46	114.53	113.03	109.49	104.08	97.65	91.33	85.91	81.43	76.93	70.83	61.55	48.36	32.02	14.88	0.29	-8.48	-9.49	-2.85	9.32	23.81	37.49	48.25	55.39	59.33	61.21	62.53	64.88	69.51	76.47	83.81	87.43	82.21	64.22	32.97	-7.51	-49.73	-85.5	-109.01	-118.79	-117.54	-110.13	-101.13	-93.11	-86.51	-80.81	-75.9	-72.84	-73.5	-79.36	-90.29	-104.1	-117.08	-125.51	-127.14	-122.05	-112.57	-101.96	-92.98	-86.79	-82.93	-80.27	-78.17	-77.07	-78.13	-82.2	-88.86	-96.44	-102.78	-106.59	-108.29	-109.8	-113.39	-120.19	-129.4
61.55	48.36	32.02	14.88	0.29	-8.48	-9.49	-2.85	9.32	23.81	37.49	48.25	55.39	59.33	61.21	62.53	64.88	69.51	76.47	83.81	87.43	82.21	64.22	32.97	-7.51	-49.73	-85.5	-109.01	-118.79	-117.54	-110.13	-101.13	-93.11	-86.51	-80.81	-75.9	-72.84	-73.5	-79.36	-90.29	-104.1	-117.08	-125.51	-127.14	-122.05	-112.57	-101.96	-92.98	-86.79	-82.93	-80.27	-78.17	-77.07	-78.13	-82.2	-88.86	-96.44	-102.78	-106.59	-108.29	-109.8	-113.39	-120.19	-129.4	-138.45	-144.13	-143.75	-135.78	-119.79	-96.07	-65.35	-28.87	11.13	51.27	87.23	114.77	131.09	136.06	132.61	125.94	121.7	123.85	133.11	146.81	160.21	168.52	168.61	159.54	142.11	117.89	88.64	56.37	23.66	-6.47	-31.01	-47.98	-56.9	-58.65	-54.82	-47.12	-37.15	-26.63	-17.54	-11.71	-10.03	-11.91	-15.4	-18.19	-18.85	-17.48	-15.5	-14.78	-16.59	-21.2	-27.86	-35.24	-41.83	-46.1	-46.77	-43.13	-35.37	-24.65	-12.86	-1.93	6.82	12.93	16.66	18.37
-138.45	-144.13	-143.75	-135.78	-119.79	-96.07	-65.35	-28.87	11.13	51.27	87.23	114.77	131.09	136.06	132.61	125.94	121.7	123.85	133.11	146.81	160.21	168.52	168.61	159.54	142.11	117.89	88.64	56.37	23.66	-6.47	-31.01	-47.98	-56.9	-58.65	-54.82	-47.12	-37.15	-26.63	-17.54	-11.71	-10.03	-11.91	-15.4	-18.19	-18.85	-17.48	-15.5	-14.78	-16.59	-21.2	-27.86	-35.24	-41.83	-46.1	-46.77	-43.13	-35.37	-24.65	-12.86	-1.93	6.82	12.93	16.66	18.37	18.18	15.84	11.08	3.99	-4.74	-14.06	-22.92	-30.79	-37.85	-44.89	-52.89	-62.53	-73.65	-85.01	-94.36	-98.74	-95.28	-81.9	-57.97	-24.6	15.51	58.44	99.86	135.87	163.96	183.68	196.62	205.65	213.56	221.85	230.28	237.44	241.98	243.62	243.26	242.16	240.84	238.32	232.55	221.6	204.86	183.53	160.06	136.86	115.28	95.33	76.12	56.83	37.41	18.62	1.58	-12.91	-24.74	-34.57	-43.35	-51.87	-60.4	-68.69	-76.24	-82.64	-87.77	-91.91	-95.64	-99.71
18.18	15.84	11.08	3.99	-4.74	-14.06	-22.92	-30.79	-37.85	-44.89	-52.89	-62.53	-73.65	-85.01	-94.36	-98.74	-95.28	-81.9	-57.97	-24.6	15.51	58.44	99.86	135.87	163.96	183.68	196.62	205.65	213.56	221.85	230.28	237.44	241.98	243.62	243.26	242.16	240.84	238.32	232.55	221.6	204.86	183.53	160.06	136.86	115.28	95.33	76.12	56.83	37.41	18.62	1.58	-12.91	-24.74	-34.57	-43.35	-51.87	-60.4	-68.69	-76.24	-82.64	-87.77	-91.91	-95.64	-99.71	-104.81	-111.27	-118.78	-126.3	-132.16	-134.6	-132.31	-124.98	-113.34	-98.88	-83.31	-68.14	-54.45	-42.88	-33.8	-27.34	-23.37	-21.53	-21.21	-21.75	-22.49	-22.88	-22.38	-20.64	-17.54	-13.35	-8.71	-4.42	-1.23	0.51	1	0.9	1.17	2.64	5.79	10.47	16	21.34	25.42	27.41	26.82	23.62	18.24	11.54	4.84	-0.35	-2.65	-1.2	4.05	12.23	21.95	31.67	40.08	46.26	49.66	50.02	47.4	42.13	34.83	26.26	17.22	8.39	0.4	-6.34
-104.81	-111.27	-118.78	-126.3	-132.16	-134.6	-132.31	-124.98	-113.34	-98.88	-83.31	-68.14	-54.45	-42.88	-33.8	-27.34	-23.37	-21.53	-21.21	-21.75	-22.49	-22.88	-22.38	-20.64	-17.54	-13.35	-8.71	-4.42	-1.23	0.51	1	0.9	1.17	2.64	5.79	10.47	16	21.34	25.42	27.41	26.82	23.62	18.24	11.54	4.84	-0.35	-2.65	-1.2	4.05	12.23	21.95	31.67	40.08	46.26	49.66	50.02	47.4	42.13	34.83	26.26	17.22	8.39	0.4	-6.34	-11.61	-15.48	-18.29	-20.55	-22.8	-25.4	-28.54	-32.23	-36.31	-40.62	-45.02	-49.38	-53.67	-57.82	-61.86	-65.82	-69.65	-73.27	-76.51	-79.07	-80.55	-80.32	-77.53	-71.24	-60.7	-45.83	-27.5	-7.53	11.79	28.32	40.73	48.7	52.79	53.93	53.03	50.64	47.08	42.7	38.05	33.97	31.3	30.56	31.73	34.17	36.73	38.06	36.89	32.4	24.41	13.51	0.98	-11.6	-22.66	-30.99	-35.97	-37.55	-36.26	-33.03	-29.02	-25.27	-22.28	-19.69	-16.4	-10.91
-11.61	-15.48	-18.29	-20.55	-22.8	-25.4	-28.54	-32.23	-36.31	-40.62	-45.02	-49.38	-53.67	-57.82	-61.86	-65.82	-69.65	-73.27	-76.51	-79.07	-80.55	-80.32	-77.53	-71.24	-60.7	-45.83	-27.5	-7.53	11.79	28.32	40.73	48.7	52.79	53.93	53.03	50.64	47.08	42.7	38.05	33.97	31.3	30.56	31.73	34.17	36.73	38.06	36.89	32.4	24.41	13.51	0.98	-11.6	-22.66	-30.99	-35.97	-37.55	-36.26	-33.03	-29.02	-25.27	-22.28	-19.69	-16.4	-10.91	-2.2	9.67	23.39	36.86	48.09	55.97	60.56	62.81	63.84	64.39	64.59	64.13	62.68	60.25	57.21	54.2	51.8	50.32	49.67	49.5	49.31	48.7	47.45	45.56	43.1	40.19	36.89	33.23	29.17	24.67	19.68	14.12	7.87	0.78	-7.21	-15.98	-25.1	-33.76	-40.88	-45.42	-46.67	-44.5	-39.47	-32.63	-25.26	-18.48	-13.04	-9.23	-6.94	-5.88	-5.68	-6.08	-6.83	-7.84	-9.02	-10.32	-11.67	-12.87	-13.74	-14.07	-13.78	-12.98	-11.91	-10.91
-2.2	9.67	23.39	36.86	48.09	55.97	60.56	62.81	63.84	64.39	64.59	64.13	62.68	60.25	57.21	54.2	51.8	50.32	49.67	49.5	49.31	48.7	47.45	45.56	43.1	40.19	36.89	33.23	29.17	24.67	19.68	14.12	7.87	0.78	-7.21	-15.98	-25.1	-33.76	-40.88	-45.42	-46.67	-44.5	-39.47	-32.63	-25.26	-18.48	-13.04	-9.23	-6.94	-5.88	-5.68	-6.08	-6.83	-7.84	-9.02	-10.32	-11.67	-12.87	-13.74	-14.07	-13.78	-12.98	-11.91	-10.91	-10.25	-10.04	-10.2	-10.54	-10.83	-10.9	-10.76	-10.63	-10.98	-12.42	-15.49	-20.29	-26.25	-32.15	-36.43	-37.78	-35.59	-30.23	-22.76	-14.49	-6.49	0.7	6.9	12.06	16.03	18.48	19.09	17.83	15.05	11.49	8.03	5.43	4.14	4.23	5.46	7.48	9.92	12.52	15.03	17.24	18.91	19.88	20.02	19.31	17.73	15.21	11.63	6.78	0.63	-6.62	-14.32	-21.43	-26.69	-28.99	-27.74	-23.14	-16.26	-8.73	-2.2	2.19	4.05	3.57	1.07	-3.37
-10.25	-10.04	-10.2	-10.54	-10.83	-10.9	-10.76	-10.63	-10.98	-12.42	-15.49	-20.29	-26.25	-32.15	-36.43	-37.78	-35.59	-30.23	-22.76	-14.49	-6.49	0.7	6.9	12.06	16.03	18.48	19.09	17.83	15.05	11.49	8.03	5.43	4.14	4.23	5.46	7.48	9.92	12.52	15.03	17.24	18.91	19.88	20.02	19.31	17.73	15.21	11.63	6.78	0.63	-6.62	-14.32	-21.43	-26.69	-28.99	-27.74	-23.14	-16.26	-8.73	-2.2	2.19	4.05	3.57	1.07	-3.37	-9.72	-17.66	-26.31	-34.34	-40.57	-44.59	-47.05	-49.22	-52.24	-56.49	-61.51	-66.48	-70.95	-74.97	-78.95	-83.19	-87.64	-91.95	-95.84	-99.22	-102.32	-105.68	-110.17	-116.91	-126.89	-140.38	-156.42	-172.67	-186.01	-193.46	-193.19	-184.96	-169.92	-149.98	-127.09	-102.91	-78.69	-55.26	-33.15	-12.53	6.65	24.47	40.81	55.46	68.12	78.65	87.1	93.6	98.27	101.17	102.39	102.23	101.31	100.42	100.38	101.57	103.86	106.63	109.14	110.78	111.32	110.84	109.69	108.34
-9.72	-17.66	-26.31	-34.34	-40.57	-44.59	-47.05	-49.22	-52.24	-56.49	-61.51	-66.48	-70.95	-74.97	-78.95	-83.19	-87.64	-91.95	-95.84	-99.22	-102.32	-105.68	-110.17	-116.91	-126.89	-140.38	-156.42	-172.67	-186.01	-193.46	-193.19	-184.96	-169.92	-149.98	-127.09	-102.91	-78.69	-55.26	-33.15	-12.53	6.65	24.47	40.81	55.46	68.12	78.65	87.1	93.6	98.27	101.17	102.39	102.23	101.31	100.42	100.38	101.57	103.86	106.63	109.14	110.78	111.32	110.84	109.69	108.34	107.49	108.05	111.06	117.41	127.41	140.51	155.2	169.36	180.9	188.24	190.6	187.91	180.53	168.96	153.87	136.07	116.66	96.91	78.14	61.43	47.41	36.19	27.32	20.1	13.72	7.59	1.34	-5.12	-11.77	-18.5	-25.22	-31.91	-38.51	-44.94	-51	-56.48	-61.2	-65.1	-68.17	-70.26	-70.99	-69.74	-65.98	-59.53	-50.73	-40.39	-29.48	-18.83	-9.04	-0.53	6.37	11.34	14.26	15.34	15.27	15.04	15.6	17.48	20.48	23.86	26.63	28.06	27.99	26.83
107.49	108.05	111.06	117.41	127.41	140.51	155.2	169.36	180.9	188.24	190.6	187.91	180.53	168.96	153.87	136.07	116.66	96.91	78.14	61.43	47.41	36.19	27.32	20.1	13.72	7.59	1.34	-5.12	-11.77	-18.5	-25.22	-31.91	-38.51	-44.94	-51	-56.48	-61.2	-65.1	-68.17	-70.26	-70.99	-69.74	-65.98	-59.53	-50.73	-40.39	-29.48	-18.83	-9.04	-0.53	6.37	11.34	14.26	15.34	15.27	15.04	15.6	17.48	20.48	23.86	26.63	28.06	27.99	26.83	25.35	24.39	24.74	26.93	31	36.26	41.28	44.27	43.73	39.25	31.78	23.33	16.05	11.28	9.02	8.18	7.33	5.44	2.25	-1.97	-6.86	-12.3	-18.26	-24.65	-31.19	-37.48	-43.25	-48.24	-52.08	-54.22	-54.16	-51.86	-48.08	-44.47	-42.9	-44.78	-50.46	-59.24	-69.7	-80.2	-89.22	-95.4	-97.85	-96.34	-91.43	-84.36	-76.37	-67.93	-58.31	-45.88	-28.94	-6.94	19.12	47.28	75.76	103.68	131.06	157.84	183.17	205.87	224.22	236.6	241.95	240.06
25.35	24.39	24.74	26.93	31	36.26	41.28	44.27	43.73	39.25	31.78	23.33	16.05	11.28	9.02	8.18	7.33	5.44	2.25	-1.97	-6.86	-12.3	-18.26	-24.65	-31.19	-37.48	-43.25	-48.24	-52.08	-54.22	-54.16	-51.86	-48.08	-44.47	-42.9	-44.78	-50.46	-59.24	-69.7	-80.2	-89.22	-95.4	-97.85	-96.34	-91.43	-84.36	-76.37	-67.93	-58.31	-45.88	-28.94	-6.94	19.12	47.28	75.76	103.68	131.06	157.84	183.17	205.87	224.22	236.6	241.95	240.06	231.6	218.17	201.66	184.08	168.49	157.16	150.91	148.93	149.32	150.09	150.36	149.73	148.13	147.48	149.11	153.21	158.53	163.15	165.26	164.57	161.01	154.41	146.85	139.72	133.6	128.45	124.21	120.79	118.4	114.95	92.67	41.71	-35.7	-124.18	-204.33	-261.23	-296.58	-315.37	-323.21	-325.14	-319.54	-305.68	-284.3	-258.25	-231.48	-207.66	-187.83	-171.85	-158.89	-146	-131.46	-115.22	-99.15	-85.98	-77.88	-74.71	-75.29	-77.93	-79.9	-79.62	-76.94	-73.13	-70.06	-69.2
231.6	218.17	201.66	184.08	168.49	157.16	150.91	148.93	149.32	150.09	150.36	149.73	148.13	147.48	149.11	153.21	158.53	163.15	165.26	164.57	161.01	154.41	146.85	139.72	133.6	128.45	124.21	120.79	118.4	114.95	92.67	41.71	-35.7	-124.18	-204.33	-261.23	-296.58	-315.37	-323.21	-325.14	-319.54	-305.68	-284.3	-258.25	-231.48	-207.66	-187.83	-171.85	-158.89	-146	-131.46	-115.22	-99.15	-85.98	-77.88	-74.71	-75.29	-77.93	-79.9	-79.62	-76.94	-73.13	-70.06	-69.2	-70.44	-72.89	-75.29	-75.92	-73.78	-68.75	-61.59	-53.53	-45.83	-39.08	-33.58	-29.33	-25.89	-22.86	-19.95	-17.16	-14.75	-13	-11.98	-11.51	-11.29	-11.06	-10.74	-10.48	-10.51	-10.97	-11.8	-12.8	-13.75	-14.58	-15.42	-16.47	-17.9	-19.73	-21.86	-24.22	-26.78	-29.62	-32.73	-36.01	-39.13	-41.63	-43.05	-43.04	-41.42	-38.2	-33.51	-27.66	-21.13	-14.55	-8.61	-3.8	-0.34	1.89	3.21	3.99	4.48	4.8	5.1	5.6	6.66	8.59	11.52	15.26
-70.44	-72.89	-75.29	-75.92	-73.78	-68.75	-61.59	-53.53	-45.83	-39.08	-33.58	-29.33	-25.89	-22.86	-19.95	-17.16	-14.75	-13	-11.98	-11.51	-11.29	-11.06	-10.74	-10.48	-10.51	-10.97	-11.8	-12.8	-13.75	-14.58	-15.42	-16.47	-17.9	-19.73	-21.86	-24.22	-26.78	-29.62	-32.73	-36.01	-39.13	-41.63	-43.05	-43.04	-41.42	-38.2	-33.51	-27.66	-21.13	-14.55	-8.61	-3.8	-0.34	1.89	3.21	3.99	4.48	4.8	5.1	5.6	6.66	8.59	11.52	15.26	19.35	23.26	26.47	28.7	29.87	30.06	29.49	28.37	26.89	25.14	23.11	20.73	17.93	14.7	11.09	7.25	3.43	0.07	-2.29	-2.98	-1.39	2.84	9.57	18.14	27.48	36.42	44.03	49.9	54.19	57.47	60.42	63.56	67.09	70.91	74.81	78.61	82.27	85.69	88.5	89.93	88.93	84.6	76.57	65.1	50.81	34.12	15.11	-6.26	-29.33	-52.21	-72.08	-86.28	-93.76	-95.78	-95.36	-95.71	-98.69	-104.08	-110.2	-115.06	-117.47	-117.28	-114.99	-111.31
19.35	23.26	26.47	28.7	29.87	30.06	29.49	28.37	26.89	25.14	23.11	20.73	17.93	14.7	11.09	7.25	3.43	0.07	-2.29	-2.98	-1.39	2.84	9.57	18.14	27.48	36.42	44.03	49.9	54.19	57.47	60.42	63.56	67.09	70.91	74.81	78.61	82.27	85.69	88.5	89.93	88.93	84.6	76.57	65.1	50.81	34.12	15.11	-6.26	-29.33	-52.21	-72.08	-86.28	-93.76	-95.78	-95.36	-95.71	-98.69	-104.08	-110.2	-115.06	-117.47	-117.28	-114.99	-111.31	-106.72	-101.46	-95.5	-88.64	-80.61	-71.49	-61.98	-53.36	-47	-43.66	-43.01	-43.93	-45.19	-46.04	-46.23	-45.7	-44.27	-41.8	-38.62	-35.58	-33.51	-32.48	-31.37	-28.5	-22.76	-14.37	-4.71	4.71	13.25	21.27	29.23	36.67	41.93	42.98	38.85	30.61	21.35	14.91	14.14	19.68	29.74	41.11	50.75	57.22	61	63.8	67.15	71.25	74.74	75.6	72.48	65.45	55.79	45.09	34.33	23.88	14.06	5.79	0.53	-0.7	1.78	6.04	9.53	10.44
-106.72	-101.46	-95.5	-88.64	-80.61	-71.49	-61.98	-53.36	-47	-43.66	-43.01	-43.93	-45.19	-46.04	-46.23	-45.7	-44.27	-41.8	-38.62	-35.58	-33.51	-32.48	-31.37	-28.5	-22.76	-14.37	-4.71	4.71	13.25	21.27	29.23	36.67	41.93	42.98	38.85	30.61	21.35	14.91	14.14	19.68	29.74	41.11	50.75	57.22	61	63.8	67.15	71.25	74.74	75.6	72.48	65.45	55.79	45.09	34.33	23.88	14.06	5.79	0.53	-0.7	1.78	6.04	9.53	10.44	8.79	6.17	4.68	5.56	8.59	12.44	15.66	17.43	17.75	17.12	16.14	15.34	15.27	16.59	19.67	24.32	29.45	33.56	35.28	34.12	30.48	25.32	19.5	13.47	7.42	1.44	-4.46	-10.59	-17.62	-26.16	-36.02	-45.85	-53.43	-56.92	-55.99	-52.09	-47.64	-44.45	-42.75	-41.31	-38.72	-34.54	-29.73	-25.82	-23.68	-22.73	-21.32	-17.97	-12.53	-6.46	-2.03	-1.04	-3.73	-8.66	-13.36	-15.56	-14.04	-9.06	-1.93	5.62	12.21	17.22	20.73	23.21
8.79	6.17	4.68	5.56	8.59	12.44	15.66	17.43	17.75	17.12	16.14	15.34	15.27	16.59	19.67	24.32	29.45	33.56	35.28	34.12	30.48	25.32	19.5	13.47	7.42	1.44	-4.46	-10.59	-17.62	-26.16	-36.02	-45.85	-53.43	-56.92	-55.99	-52.09	-47.64	-44.45	-42.75	-41.31	-38.72	-34.54	-29.73	-25.82	-23.68	-22.73	-21.32	-17.97	-12.53	-6.46	-2.03	-1.04	-3.73	-8.66	-13.36	-15.56	-14.04	-9.06	-1.93	5.62	12.21	17.22	20.73	23.21	25.04	26.33	26.89	26.54	25.27	23.31	21.03	18.73	16.64	14.86	13.53	12.79	12.75	13.37	14.4	15.39	15.66	14.54	11.61	7.1	1.89	-2.72	-5.7	-6.82	-7	-7.81	-10.64	-15.88	-22.54	-28.74	-32.62	-33.14	-30.53	-25.86	-20.35	-14.77	-9.36	-4.14	0.59	4.19	5.93	5.49	3.29	0.49	-1.49	-1.55	0.73	5.08	10.83	17.27	23.71	29.51	33.92	36.33	36.53	34.87	32.21	29.51	27.43	26.11	25.29	24.43	22.8	19.55
25.04	26.33	26.89	26.54	25.27	23.31	21.03	18.73	16.64	14.86	13.53	12.79	12.75	13.37	14.4	15.39	15.66	14.54	11.61	7.1	1.89	-2.72	-5.7	-6.82	-7	-7.81	-10.64	-15.88	-22.54	-28.74	-32.62	-33.14	-30.53	-25.86	-20.35	-14.77	-9.36	-4.14	0.59	4.19	5.93	5.49	3.29	0.49	-1.49	-1.55	0.73	5.08	10.83	17.27	23.71	29.51	33.92	36.33	36.53	34.87	32.21	29.51	27.43	26.11	25.29	24.43	22.8	19.55	13.96	5.83	-4.1	-13.97	-21.3	-23.99	-21.2	-13.87	-4.35	4.57	10.82	13.76	14.09	13.03	11.4	9.18	5.84	1.08	-4.56	-9.57	-12.24	-11.49	-7.63	-2.28	2.52	5.27	5.74	4.91	4.24	4.89	7.37	11.58	17.31	24.45	33.04	43.08	54.29	65.92	76.84	85.73	91.51	93.66	92.46	88.91	84.37	80.13	76.99	75.12	74.06	73.04	71.29	68.3	63.95	58.43	52.04	45.06	37.73	30.23	22.79	15.69	9.17	3.33	-1.97	-7.04
13.96	5.83	-4.1	-13.97	-21.3	-23.99	-21.2	-13.87	-4.35	4.57	10.82	13.76	14.09	13.03	11.4	9.18	5.84	1.08	-4.56	-9.57	-12.24	-11.49	-7.63	-2.28	2.52	5.27	5.74	4.91	4.24	4.89	7.37	11.58	17.31	24.45	33.04	43.08	54.29	65.92	76.84	85.73	91.51	93.66	92.46	88.91	84.37	80.13	76.99	75.12	74.06	73.04	71.29	68.3	63.95	58.43	52.04	45.06	37.73	30.23	22.79	15.69	9.17	3.33	-1.97	-7.04	-12.3	-18.06	-24.43	-31.28	-38.32	-45.11	-51.18	-56.14	-59.72	-61.95	-63.09	-63.67	-64.23	-65.19	-66.63	-68.26	-69.46	-69.46	-67.56	-63.34	-56.78	-48.21	-38.23	-27.53	-16.7	-6.25	3.48	12.16	19.46	25.06	28.69	30.25	29.87	27.94	25	21.73	18.69	16.33	14.86	14.25	14.25	14.48	14.48	13.82	12.18	9.4	5.52	0.7	-4.82	-10.84	-17.14	-23.42	-29.23	-33.94	-36.88	-37.51	-35.58	-31.25	-24.98	-17.47	-9.48	-1.66	5.47	11.56
-12.3	-18.06	-24.43	-31.28	-38.32	-45.11	-51.18	-56.14	-59.72	-61.95	-63.09	-63.67	-64.23	-65.19	-66.63	-68.26	-69.46	-69.46	-67.56	-63.34	-56.78	-48.21	-38.23	-27.53	-16.7	-6.25	3.48	12.16	19.46	25.06	28.69	30.25	29.87	27.94	25	21.73	18.69	16.33	14.86	14.25	14.25	14.48	14.48	13.82	12.18	9.4	5.52	0.7	-4.82	-10.84	-17.14	-23.42	-29.23	-33.94	-36.88	-37.51	-35.58	-31.25	-24.98	-17.47	-9.48	-1.66	5.47	11.56	16.38	19.75	21.49	21.44	19.57	16.12	11.67	7.05	3.05	0.14	-1.78	-3.26	-4.95	-7.21	-9.87	-12.37	-13.97	-14.23	-13.15	-11.13	-8.81	-6.82	-5.64	-5.5	-6.29	-7.52	-8.41	-7.93	-5.15	0.44	8.81	19.27	30.8	42.32	52.87	61.74	68.46	72.74	74.46	73.68	70.63	65.7	59.39	52.23	44.71	37.22	30.01	23.15	16.59	10.25	4.07	-1.88	-7.46	-12.7	-17.83	-23.4	-30.08	-38.3	-47.98	-58.37	-68.17	-75.92	-80.45	-81.16
16.38	19.75	21.49	21.44	19.57	16.12	11.67	7.05	3.05	0.14	-1.78	-3.26	-4.95	-7.21	-9.87	-12.37	-13.97	-14.23	-13.15	-11.13	-8.81	-6.82	-5.64	-5.5	-6.29	-7.52	-8.41	-7.93	-5.15	0.44	8.81	19.27	30.8	42.32	52.87	61.74	68.46	72.74	74.46	73.68	70.63	65.7	59.39	52.23	44.71	37.22	30.01	23.15	16.59	10.25	4.07	-1.88	-7.46	-12.7	-17.83	-23.4	-30.08	-38.3	-47.98	-58.37	-68.17	-75.92	-80.45	-81.16	-78.08	-71.78	-63.04	-52.75	-41.79	-31.11	-21.64	-14.23	-9.45	-7.44	-7.86	-9.94	-12.76	-15.41	-17.22	-17.81	-17.14	-15.47	-13.32	-11.29	-9.91	-9.55	-10.29	-12.02	-14.48	-17.43	-20.72	-24.19	-27.69	-31	-33.85	-35.97	-37.09	-36.99	-35.44	-32.23	-27.29	-20.78	-13.18	-5.23	2.28	8.78	14.19	18.81	23.17	27.64	32.23	36.58	40.29	43.16	45.36	47.39	49.68	52.37	55.11	57.24	58.11	57.32	54.81	50.73	45.19	38.11	29.17	18.04
