1677015457.00
64.000000
-0.00
-0.00
-0.00
-0.00
-0.00
-0.00
-0.00
-0.00
-0.00
-0.00
0.00
0.01
0.01
-0.00
-0.03
-0.05
-0.05
0.00
0.13
0.36
0.66
1.01
1.37
1.72
2.06
2.40
2.79
3.24
3.80
4.42
5.06
5.66
6.20
6.68
7.15
7.68
8.31
9.14
10.09
11.04
11.88
12.56
13.14
13.76
14.65
15.96
17.91
20.32
22.90
25.38
27.58
29.57
31.68
34.32
37.81
42.54
48.15
54.10
59.83
64.97
69.58
74.14
79.34
85.71
93.76
103.00
112.62
121.73
129.77
136.75
143.30
150.75
157.77
166.64
177.95
191.79
206.97
220.57
228.25
225.36
208.53
176.87
132.76
80.05
23.07
-34.94
-92.44
-149.16
-205.23
-260.37
-313.74
-363.87
-409.83
-450.91
-486.50
-515.74
-537.23
-549.22
-549.96
-538.37
-514.21
-478.67
-433.88
-382.45
-327.02
-269.84
-212.63
-156.66
-102.95
-52.37
-5.90
35.58
71.43
101.35
125.50
144.38
158.69
169.15
176.37
180.75
182.57
182.07
179.51
175.23
169.65
163.18
156.15
148.81
141.30
133.69
126.02
118.33
110.69
103.16
95.80
88.68
81.83
75.25
68.95
62.95
57.25
51.86
46.78
42.03
37.59
33.45
29.61
26.07
22.81
19.83
17.11
14.67
12.48
10.54
8.83
7.35
6.07
4.97
4.05
3.26
2.62
2.09
1.66
1.32
1.05
0.81
0.59
0.39
0.20
0.03
-0.09
-0.16
-0.19
-0.20
-0.21
-0.23
-0.29
-0.36
-0.42
-0.45
-0.44
-0.39
-0.34
-0.34
-0.40
-0.53
-0.71
-0.88
-0.96
-0.94
-0.84
-0.74
-0.74
-0.93
-1.31
-1.82
-2.29
-2.59
-2.61
-2.41
-2.18
-2.14
-2.47
-3.21
-4.18
-5.10
-5.67
-5.74
-5.39
-4.94
-4.76
-5.16
-6.17
-7.56
-8.87
-9.73
-9.92
-9.53
-8.87
-8.32
-8.20
-8.76
-10.19
-12.54
-15.45
-17.95
-18.48
-15.42
-7.83
3.83
17.69
31.06
41.44
47.48
49.20
47.70
44.29
39.89
34.96
29.43
23.52
17.76
12.86
9.30
7.04
5.52
3.95
1.75
-1.15
-4.26
-6.90
-8.50
-8.99
-8.75
-8.39
-8.45
-9.06
-10.01
-10.84
-11.17
-10.82
-9.93
-8.76
-7.63
-6.78
-6.30
-6.16
-6.22
-6.31
-6.29
-6.19
-6.04
-5.95
-5.94
-5.97
-5.96
-5.79
-5.49
-5.17
-5.04
-5.21
-5.69
-6.35
-6.92
-7.11
-6.67
-5.47
-3.53
-1.06
1.56
3.89
5.54
6.36
6.43
6.03
5.47
4.91
4.37
3.74
2.99
2.17
1.52
1.03
0.73
0.53
0.19
-0.52
-1.65
-3.05
-4.38
-5.23
-5.38
-4.83
-3.89
-3.09
-2.91
-3.57
-4.96
-6.62
-8.00
-8.69
-8.55
-7.87
-7.20
-7.11
-7.91
-9.58
-11.71
-13.68
-14.90
-14.87
-13.38
-10.46
-6.40
-1.65
3.32
8.17
12.74
17.01
20.97
24.49
27.30
29.14
29.91
29.84
29.42
29.17
29.37
29.95
30.52
30.64
30.08
28.98
27.66
26.45
25.39
24.26
22.71
20.48
17.58
14.29
10.94
7.81
4.87
1.96
-1.14
-4.53
-8.19
-11.95
-15.66
-19.22
-22.53
-25.51
-27.95
-29.61
-30.18
-29.48
-27.50
-24.41
-20.58
-16.45
-12.39
-8.65
-5.30
-2.35
0.15
2.12
3.37
3.78
3.40
2.45
1.35
0.47
0.10
0.28
0.87
1.66
2.43
3.11
3.69
4.20
4.60
4.73
4.39
3.39
1.77
-0.23
-2.18
-3.66
-4.44
-4.62
-4.58
-4.86
-5.85
-7.75
-10.46
-13.74
-17.25
-20.56
-23.19
-24.60
-24.33
-22.21
-18.47
-13.74
-8.83
-4.51
-1.19
1.10
2.62
3.72
4.63
5.33
5.70
5.60
5.04
4.25
3.51
3.13
3.19
3.56
3.95
4.05
3.72
2.95
1.94
0.93
0.08
-0.57
-1.15
-1.84
-2.83
-4.22
-5.90
-7.56
-8.79
-9.25
-8.88
-7.93
-6.94
-6.47
-6.91
-8.32
-10.45
-12.89
-15.15
-16.76
-17.30
-16.50
-14.25
-10.70
-6.28
-1.52
3.04
7.02
10.24
12.61
14.13
14.78
14.65
13.92
12.90
11.94
11.29
11.05
11.04
10.99
10.63
9.83
8.62
7.20
5.82
4.69
3.89
3.35
2.88
2.21
1.16
-0.30
-1.98
-3.58
-4.78
-5.43
-5.62
-5.61
-5.73
-6.21
-7.18
-8.67
-10.63
-13.00
-15.54
-17.88
-19.44
-19.67
-18.21
-15.16
-11.04
-6.56
-2.35
1.24
4.20
6.66
8.70
10.28
11.25
11.51
11.22
10.70
10.33
10.32
10.62
10.98
11.07
10.76
10.08
9.25
8.48
7.83
7.26
6.65
5.90
4.99
3.93
2.71
1.33
-0.23
-1.95
-3.76
-5.56
-7.27
-8.85
-10.33
-11.79
-13.31
-14.95
-16.57
-17.91
-18.61
-18.28
-16.75
-14.14
-10.83
-7.34
-4.12
-1.41
0.78
2.66
4.35
5.88
7.05
7.57
7.17
5.79
3.70
1.45
-0.33
-1.14
-0.89
0.10
1.26
2.04
2.21
1.94
1.67
1.75
2.30
3.03
3.48
3.26
2.34
1.06
-0.09
-0.72
-0.80
-0.62
-0.62
-1.17
-2.43
-4.27
-6.48
-8.74
-10.71
-12.05
-12.44
-11.65
-9.71
-6.88
-3.64
-0.45
2.36
4.70
6.65
8.28
9.59
10.47
10.82
10.61
9.96
9.07
8.14
7.26
6.45
5.63
4.71
3.64
2.47
1.34
0.41
-0.22
-0.62
-1.04
-1.85
-3.32
-5.52
-8.25
-11.15
-13.87
-16.24
-18.36
-20.47
-22.83
-25.63
-28.86
-32.40
-36.11
-39.78
-43.23
-46.20
-48.40
-49.62
-49.74
-48.89
-47.40
-45.70
-44.16
-42.91
-41.81
-40.52
-38.63
-35.78
-31.83
-26.80
-20.79
-13.92
-6.23
2.32
11.71
21.86
32.46
43.04
53.04
61.86
68.99
74.03
76.72
76.97
74.84
70.63
64.81
57.98
50.80
43.83
37.52
32.07
27.44
23.36
19.45
15.34
10.84
6.04
1.22
-3.16
-6.62
-8.74
-9.19
-7.85
-4.87
-0.72
3.91
8.19
11.53
13.69
14.86
15.46
15.88
16.31
16.67
16.79
16.54
15.99
15.33
14.80
14.55
14.62
14.91
15.31
15.72
16.02
16.18
16.09
15.64
14.69
13.12
10.91
8.20
5.28
2.53
0.22
-1.49
-2.68
-3.52
-4.30
-5.25
-6.57
-8.37
-10.68
-13.33
-16.05
-18.38
-19.89
-20.24
-19.30
-17.17
-14.12
-10.50
-6.66
-2.94
0.43
3.31
5.65
7.39
8.47
8.81
8.40
7.41
6.22
5.34
5.15
5.75
6.86
7.94
8.46
8.16
7.14
5.80
4.55
3.69
3.22
2.92
2.48
1.65
0.32
-1.40
-3.26
-4.99
-6.42
-7.49
-8.31
-9.05
-9.81
-10.58
-11.31
-11.87
-12.20
-12.22
-11.89
-11.13
-9.86
-8.07
-5.83
-3.33
-0.78
1.64
3.81
5.61
6.94
7.69
7.79
7.34
6.56
5.75
5.14
4.81
4.67
4.57
4.40
4.17
3.96
3.85
3.90
4.03
4.10
3.94
3.39
2.40
1.05
-0.44
-1.80
-2.84
-3.54
-4.08
-4.69
-5.53
-6.59
-7.74
-8.83
-9.84
-10.74
-11.50
-11.92
-11.68
-10.51
-8.31
-5.32
-1.97
1.25
3.98
6.05
7.44
8.19
8.34
7.99
7.31
6.57
6.05
5.92
6.18
6.62
6.98
7.03
6.73
6.20
5.62
5.13
4.73
4.36
3.88
3.24
2.49
1.70
0.94
0.19
-0.64
-1.63
-2.79
-4.04
-5.28
-6.44
-7.47
-8.34
-8.92
-9.03
-8.43
-6.98
-4.73
-1.91
1.15
4.17
6.93
9.35
11.36
12.93
14.00
14.60
14.81
14.73
14.46
14.07
13.59
13.08
12.68
12.54
12.76
13.27
13.81
14.03
13.62
12.43
10.52
8.14
5.65
3.35
1.43
-0.05
-1.14
-2.00
-2.77
-3.67
-4.87
-6.47
-8.47
-10.58
-12.36
-13.29
-13.03
-11.49
-8.97
-6.01
-3.17
-0.92
0.57
1.36
1.68
1.77
1.83
1.90
1.98
2.05
2.08
2.12
2.22
2.35
2.43
2.26
1.73
0.81
-0.33
-1.45
-2.33
-2.93
-3.42
-3.99
-4.79
-5.77
-6.74
-7.49
-7.97
-8.33
-8.89
-9.94
-11.54
-13.50
-15.38
-16.70
-17.15
-16.66
-15.35
-13.48
-11.28
-8.92
-6.50
-4.09
-1.79
0.27
1.99
3.35
4.37
5.12
5.68
6.03
6.18
6.13
5.96
5.76
5.62
5.53
5.42
5.22
4.88
4.43
3.85
3.10
2.15
0.95
-0.39
-1.65
-2.59
-3.14
-3.41
-3.72
-4.38
-5.57
-7.24
-9.17
-11.05
-12.52
-13.33
-13.25
-12.23
-10.36
-7.96
-5.43
-3.08
-1.04
0.77
2.53
4.35
6.08
7.44
8.18
8.23
7.76
7.07
6.45
6.03
5.79
5.61
5.40
5.14
4.82
4.44
3.91
3.12
2.01
0.62
-0.91
-2.37
-3.63
-4.65
-5.49
-6.29
-7.09
-7.91
-8.68
-9.42
-10.19
-11.11
-12.29
-13.72
-15.27
-16.65
-17.54
-17.68
-16.95
-15.39
-13.15
-10.50
-7.69
-4.99
-2.55
-0.43
1.35
2.79
3.92
4.77
5.41
5.96
6.51
7.11
7.72
8.24
8.64
8.89
9.08
9.24
9.43
9.58
9.63
9.55
9.33
9.03
8.69
8.32
7.81
7.08
6.04
4.71
3.22
1.78
0.58
-0.30
-0.95
-1.51
-2.16
-2.93
-3.66
-4.09
-3.99
-3.23
-1.88
-0.16
1.73
3.66
5.56
7.39
9.07
10.45
11.39
11.80
11.73
11.34
10.86
10.45
10.20
10.10
10.05
10.04
10.02
10.00
9.97
9.88
9.62
9.09
8.22
7.03
5.63
4.18
2.85
1.77
0.98
0.48
0.14
-0.21
-0.83
-1.92
-3.58
-5.74
-8.15
-10.38
-11.95
-12.49
-11.83
-10.12
-7.76
-5.29
-3.11
-1.45
-0.21
0.86
1.94
3.05
3.97
4.42
4.28
3.69
3.03
2.71
2.97
3.71
4.62
5.28
5.40
4.95
4.09
3.09
2.16
1.36
0.62
-0.22
-1.30
-2.67
-4.24
-5.80
-7.07
-7.88
-8.15
-8.07
-7.90
-8.00
-8.59
-9.74
-11.27
-12.91
-14.33
-15.27
-15.59
-15.25
-14.28
-12.69
-10.55
-7.95
-5.09
-2.25
0.32
2.39
3.81
4.56
4.70
4.41
3.92
3.48
3.30
3.43
3.77
4.10
4.18
3.93
3.40
2.73
2.12
1.63
1.27
0.94
0.53
-0.05
-0.85
-1.87
-3.06
-4.25
-5.30
-6.06
-6.53
-6.82
-7.16
-7.77
-8.74
-10.01
-11.33
-12.46
-13.15
-13.29
-12.89
-12.03
-10.83
-9.34
-7.61
-5.62
-3.40
-1.03
1.36
3.57
5.38
6.61
7.20
7.22
6.89
6.50
6.31
6.46
6.84
7.28
7.52
7.40
6.91
6.23
5.52
4.92
4.41
3.80
2.94
1.71
0.18
-1.44
-2.84
-3.83
-4.35
-4.50
-4.55
-4.70
-5.19
-6.07
-7.35
-8.88
-10.49
-11.95
-13.03
-13.52
-13.28
-12.30
-10.63
-8.43
-5.89
-3.21
-0.56
1.90
4.06
5.84
7.20
8.11
8.60
8.74
8.66
8.48
8.34
8.29
8.30
8.31
8.21
7.95
7.50
6.93
6.36
5.89
5.53
5.24
4.89
4.35
3.56
2.58
1.57
0.69
0.05
-0.36
-0.68
-1.06
-1.62
-2.41
-3.43
-4.64
-6.04
-7.53
-8.90
-9.86
-10.09
-9.33
-7.57
-5.06
-2.23
0.39
2.45
3.84
4.70
5.33
6.06
7.04
8.23
9.42
10.28
10.61
10.38
9.81
9.21
8.83
8.73
8.74
8.60
8.17
7.53
6.96
6.77
7.11
7.75
8.27
8.18
7.25
5.61
3.68
1.95
0.78
0.21
0.03
-0.13
-0.55
-1.37
-2.55
-3.94
-5.36
-6.62
-7.56
-8.04
-7.94
-7.19
-5.81
-3.93
-1.78
0.42
2.42
4.05
5.21
5.89
6.11
6.01
5.76
5.53
5.45
5.55
5.70
5.70
5.39
4.69
3.69
2.58
1.59
0.89
0.50
0.32
0.11
-0.34
-1.19
-2.42
-3.87
-5.32
-6.60
-7.66
-8.59
-9.50
-10.44
-11.40
-12.32
-13.16
-13.97
-14.82
-15.72
-16.49
-16.80
-16.30
-14.80
-12.45
-9.68
-6.98
-4.73
-2.98
-1.58
-0.25
1.09
2.36
3.33
3.87
4.02
4.04
4.19
4.60
5.14
5.53
5.51
5.02
4.28
3.58
3.20
3.20
3.37
3.43
3.10
2.28
1.05
-0.39
-1.82
-3.09
-4.19
-5.18
-6.13
-7.04
-7.88
-8.60
-9.22
-9.84
-10.60
-11.46
-12.24
-12.56
-12.04
-10.52
-8.20
-5.56
-3.18
-1.42
-0.27
0.56
1.47
2.64
3.98
5.18
5.90
6.02
5.71
5.29
5.08
5.16
5.36
5.42
5.11
4.41
3.54
2.80
2.40
2.33
2.37
2.18
1.49
0.26
-1.35
-3.03
-4.44
-5.43
-5.99
-6.26
-6.45
-6.73
-7.24
-8.05
-9.09
-10.23
-11.21
-11.73
-11.58
-10.70
-9.22
-7.34
-5.29
-3.18
-1.05
1.12
3.28
5.30
7.00
8.24
8.99
9.37
9.55
9.70
9.87
9.99
9.94
9.61
9.03
8.32
7.67
7.24
7.04
6.94
6.70
6.12
5.12
3.76
2.23
0.75
-0.48
-1.30
-1.69
-1.68
-1.46
-1.22
-1.19
-1.50
-2.23
-3.32
-4.64
-5.94
-6.90
-7.21
-6.62
-5.05
-2.64
0.29
3.30
5.96
7.92
8.96
8.99
8.09
6.43
4.34
2.14
0.16
-1.38
-2.36
-2.73
-2.52
-1.84
-0.85
0.21
1.11
1.74
2.13
2.37
2.59
2.75
2.75
2.41
1.69
0.75
-0.12
-0.62
-0.60
-0.17
0.36
0.56
0.02
-1.43
-3.69
-6.36
-8.86
-10.68
-11.49
-11.31
-10.35
-8.89
-7.10
-5.00
-2.50
0.39
3.45
6.31
8.56
9.85
10.13
9.53
8.41
7.21
6.31
5.92
6.03
6.40
6.70
6.69
6.29
5.66
5.06
4.63
4.38
4.13
3.69
2.98
2.09
1.18
0.38
-0.28
-0.92
-1.69
-2.70
-3.94
-5.35
-6.78
-8.11
-9.18
-9.83
-9.89
-9.26
-7.95
-6.09
-3.97
-1.84
0.07
1.68
2.94
3.83
4.26
4.13
3.40
2.20
0.84
-0.33
-1.00
-1.10
-0.76
-0.26
0.11
0.18
-0.04
-0.44
-0.82
-1.01
-0.94
-0.62
-0.20
0.13
0.23
0.03
-0.41
-0.95
-1.46
-1.87
-2.25
-2.70
-3.36
-4.22
-5.21
-6.16
-7.00
-7.71
-8.37
-9.00
-9.47
-9.56
-8.96
-7.51
-5.35
-2.83
-0.46
1.40
2.68
3.58
4.44
5.53
6.90
8.33
9.52
10.23
10.41
10.16
9.70
9.14
8.54
7.85
7.06
6.21
5.40
4.80
4.49
4.45
4.51
4.45
4.06
3.26
2.15
0.90
-0.22
-1.02
-1.48
-1.73
-2.04
-2.65
-3.64
-4.99
-6.55
-8.17
-9.76
-11.28
-12.70
-13.95
-14.89
-15.42
-15.45
-15.03
-14.19
-13.05
-11.72
-10.37
-9.18
-8.34
-7.96
-7.98
-8.28
-8.69
-9.12
-9.61
-10.25
-11.06
-12.00
-12.91
-13.69
-14.38
-15.15
-16.24
-17.78
-19.77
-22.03
-24.38
-26.69
-28.96
-31.26
-33.62
-35.99
-38.11
-39.57
-39.90
-38.63
-35.48
-30.42
-23.72
-15.86
-7.45
0.90
8.75
15.85
22.12
27.58
32.27
36.22
39.41
41.85
43.55
44.60
45.04
45.00
44.55
43.78
42.78
41.59
40.27
38.86
37.43
35.97
34.54
33.09
31.64
30.18
28.72
27.29
25.89
24.51
23.07
21.52
19.84
18.07
16.32
14.66
13.15
11.75
10.42
9.09
7.75
6.45
5.24
4.22
3.42
2.83
2.34
1.83
1.17
0.33
-0.65
-1.67
-2.58
-3.26
-3.61
-3.57
-3.09
-2.16
-0.82
0.83
2.63
4.44
6.11
7.55
8.67
9.38
9.60
9.30
8.55
7.56
6.56
5.73
5.09
4.52
3.83
2.90
1.79
0.69
-0.23
-0.88
-1.41
-2.06
-3.07
-4.47
-6.11
-7.76
-9.23
-10.48
-11.58
-12.59
-13.52
-14.28
-14.78
-15.02
-15.11
-15.20
-15.43
-15.75
-16.00
-15.96
-15.44
-14.35
-12.73
-10.71
-8.52
-6.37
-4.44
-2.79
-1.39
-0.14
0.95
1.81
2.29
2.33
2.01
1.55
1.25
1.22
1.39
1.50
1.30
0.68
-0.24
-1.26
-2.21
-3.03
-3.76
-4.47
-5.19
-5.90
-6.59
-7.28
-8.00
-8.80
-9.64
-10.47
-11.17
-11.69
-12.05
-12.32
-12.64
-13.07
-13.57
-14.01
-14.21
-14.01
-13.34
-12.26
-10.88
-9.34
-7.78
-6.21
-4.60
-2.87
-0.94
1.14
3.15
4.81
5.83
6.13
5.88
5.47
5.28
5.50
6.01
6.47
6.55
6.15
5.37
4.46
3.62
2.89
2.16
1.29
0.25
-0.90
-2.00
-2.91
-3.59
-4.11
-4.60
-5.22
-6.09
-7.23
-8.61
-10.07
-11.40
-12.35
-12.71
-12.36
-11.32
-9.72
-7.82
-5.87
-4.12
-2.72
-1.67
-0.88
-0.18
0.52
1.25
1.93
2.52
3.02
3.53
4.15
4.93
5.78
6.56
7.19
7.69
8.25
9.02
10.02
11.03
11.70
11.72
10.98
9.69
8.23
7.04
6.37
6.28
6.58
7.03
7.46
7.77
7.99
8.12
8.10
7.81
7.18
6.33
5.59
5.36
5.95
7.35
9.23
11.11
12.60
13.62
14.38
15.23
16.42
17.97
19.65
21.09
21.97
22.10
21.48
20.29
18.73
17.00
15.16
13.15
10.81
8.09
5.09
2.10
-0.50
-2.44
-3.71
-4.51
-5.15
-5.80
-6.43
-6.87
-6.97
-6.76
-6.52
-6.63
-7.44
-9.03
-11.24
-13.73
-16.10
-18.02
-19.31
-19.91
-19.86
-19.27
-18.21
-16.78
-15.00
-12.89
-10.50
-7.93
-5.37
-3.01
-1.06
0.39
1.40
2.08
2.58
2.94
3.20
3.35
3.38
3.33
3.20
2.93
2.39
1.44
-0.02
-1.89
-3.97
-5.93
-7.51
-8.58
-9.16
-9.45
-9.63
-9.86
-10.24
-10.82
-11.68
-12.79
-14.07
-15.28
-16.11
-16.26
-15.61
-14.26
-12.51
-10.75
-9.25
-8.08
-7.14
-6.21
-5.12
-3.84
-2.43
-1.00
0.34
1.62
2.87
4.09
5.23
6.12
6.57
6.48
5.96
5.26
4.70
4.46
4.49
4.47
4.03
2.92
1.15
-0.98
-3.01
-4.49
-5.20
-5.15
-4.60
-3.90
-3.44
-3.41
-3.84
-4.54
-5.18
-5.47
-5.20
-4.37
-3.14
-1.70
-0.21
1.37
3.07
4.92
6.77
8.37
9.44
9.86
9.76
9.48
9.39
9.72
10.47
11.42
12.29
12.86
13.11
13.10
12.93
12.65
12.18
11.46
10.40
9.12
7.77
6.55
5.56
4.82
4.21
3.62
2.94
2.12
1.11
-0.21
-1.91
-3.96
-6.12
-8.02
-9.29
-9.76
-9.57
-9.08
-8.65
-8.44
-8.37
-8.24
-7.95
-7.63
-7.58
-8.15
-9.45
-11.32
-13.38
-15.21
-16.59
-17.54
-18.31
-19.18
-20.30
-21.61
-22.78
-23.37
-22.97
-21.28
-18.17
-13.70
-8.08
-1.63
5.23
12.03
18.25
23.43
27.13
29.05
29.06
27.27
24.01
19.89
15.69
12.20
10.07
9.56
10.61
12.87
15.95
19.56
23.60
28.15
33.24
38.74
44.16
48.74
51.57
51.93
49.60
45.09
39.63
34.81
32.08
32.21
34.90
38.96
42.72
44.87
45.08
44.45
45.30
50.59
63.10
84.56
114.95
152.12
191.86
228.57
256.34
270.45
268.48
250.91
220.72
182.19
139.30
94.68
49.37
3.78
-40.93
-81.93
-114.99
-136.05
-143.13
-137.62
-123.78
-106.65
-89.73
-73.49
-55.84
-34.16
-7.58
21.91
50.13
72.69
86.98
93.09
93.07
89.52
84.10
76.92
66.73
51.66
29.72
-0.71
-40.12
-86.86
-136.58
-182.51
-217.14
-234.48
-231.97
-211.01
-175.95
-132.31
-85.26
-39.15
2.34
35.96
59.30
71.63
74.36
70.50
63.36
55.08
46.28
36.65
26.15
15.11
4.71
-5.21
-16.13
-30.34
-49.25
-71.94
-95.01
-113.84
-124.93
-126.08
-117.59
-100.97
-77.97
-50.24
-19.64
11.35
39.84
62.41
78.77
89.21
95.18
98.43
100.37
101.95
103.72
105.76
105.18
103.63
99.95
93.79
86.07
78.57
72.64
67.89
61.81
46.11
24.00
-4.22
-35.58
-66.04
-92.78
-115.84
-137.97
-163.19
-202.75
-249.61
-303.90
-364.18
-427.68
-490.14
-545.97
-589.02
-614.12
-628.66
-621.79
-597.35
-560.42
-515.36
-464.78
-409.94
-352.22
-230.95
-135.42
-58.74
-5.10
26.22
42.26
54.55
74.70
109.40
157.46
200.51
239.14
264.42
273.66
270.65
262.44
255.04
250.46
246.77
232.29
212.78
186.29
154.15
120.68
91.67
72.01
64.30
68.81
79.29
98.99
122.25
143.55
158.64
164.66
159.10
139.90
106.78
59.96
7.65
-47.04
-99.82
-145.04
-177.28
-194.48
-199.01
-195.78
-190.50
-185.28
-186.59
-198.12
-219.29
-245.80
-273.27
-299.18
-322.23
-341.52
-323.46
-252.21
-139.10
-15.93
90.37
170.10
225.95
264.80
292.68
313.16
322.41
317.34
298.93
273.61
248.74
228.87
215.42
207.29
201.96
192.48
173.71
144.19
107.40
68.09
30.29
-2.24
-25.35
-35.00
-31.30
-12.40
14.66
42.16
63.82
76.25
79.97
78.36
75.25
71.82
67.67
61.78
55.37
50.88
50.26
54.21
62.06
71.63
80.13
85.54
87.06
86.36
86.20
88.88
95.87
107.03
120.13
131.22
135.66
129.58
112.15
85.90
55.21
25.35
0.47
-17.59
-29.25
-36.42
-41.58
-46.95
-50.76
-52.97
-54.06
-54.73
-55.56
-56.49
-56.78
-55.40
-51.33
-44.25
-35.36
-26.55
-19.84
-16.72
-17.49
-21.18
-26.11
-30.70
-34.38
-38.27
-44.08
-53.13
-65.17
-78.07
-88.37
-92.65
-89.07
-78.07
-62.34
-45.34
-29.86
-17.18
-7.17
0.97
7.89
13.65
18.05
21.03
23.25
25.83
29.74
35.11
40.95
45.58
47.26
44.93
38.46
28.53
16.25
2.88
-10.40
-22.58
-32.84
-40.64
-45.68
-47.80
-46.88
-42.91
-36.28
-28.08
-20.15
-14.79
-14.07
-19.20
-30.06
-45.28
-62.55
-79.33
-93.55
-104.21
-111.65
-117.50
-124.06
-133.31
-146.02
-161.19
-176.12
-187.21
-191.01
-185.28
-169.68
-145.83
-116.76
-86.07
-56.84
-30.87
-8.52
10.88
28.23
43.96
57.92
69.71
79.20
86.80
93.15
98.56
102.72
104.79
103.99
100.28
94.54
88.24
82.86
79.22
77.26
76.27
75.23
73.28
69.97
65.32
59.71
53.61
47.39
41.06
34.53
27.77
21.08
15.29
11.42
10.28
11.99
15.92
20.88
25.74
29.86
33.09
35.66
37.75
39.27
39.96
39.58
38.14
35.97
33.58
31.48
29.93
28.90
28.14
27.31
26.19
24.72
22.93
20.88
18.53
15.83
12.74
9.41
6.20
3.63
2.08
1.64
2.02
2.50
2.26
0.62
-2.65
-7.12
-11.81
-15.38
-16.64
-14.90
-10.27
-3.56
4.03
11.34
17.59
22.45
25.95
28.25
29.49
29.75
29.13
27.87
26.37
25.05
24.26
24.11
24.40
24.75
24.69
23.95
22.57
20.89
19.40
18.38
17.77
17.08
15.76
13.41
10.12
6.45
3.09
0.48
-1.44
-3.16
-5.35
-8.40
-12.20
-16.12
-19.27
-20.81
-20.20
-17.44
-12.89
-7.25
-1.24
4.53
9.61
13.80
16.99
19.16
20.20
20.06
18.73
16.41
13.48
10.49
7.93
6.02
4.76
3.88
3.01
1.85
0.30
-1.57
-3.53
-5.27
-6.58
-7.38
-7.79
-8.12
-8.78
-10.22
-12.69
-16.17
-20.38
-24.93
-29.46
-33.72
-37.59
-41.06
-44.14
-46.79
-48.94
-50.33
-50.47
-48.71
-44.43
-37.32
-27.68
-16.49
-5.17
4.90
12.86
18.62
22.62
25.50
27.62
29.02
29.50
28.99
27.70
26.17
24.97
24.43
24.51
24.84
24.94
24.42
23.16
21.26
18.94
16.36
13.55
10.46
6.99
3.21
-0.69
-4.37
-7.50
-9.91
-11.70
-13.26
-15.10
-17.68
-21.12
-25.12
-28.93
-31.57
-32.06
-29.69
-24.30
-16.32
-6.73
3.17
12.06
18.89
23.16
24.85
24.48
22.84
20.89
19.51
19.35
20.70
23.35
26.63
29.56
31.18
30.82
28.28
23.93
18.46
12.60
6.88
1.59
-3.12
-7.06
-10.00
-11.71
-12.16
-11.69
-10.95
-10.68
-11.42
-13.28
-15.96
-18.94
-21.68
-23.81
-25.08
-25.27
-24.15
-21.48
-17.30
-11.99
-6.24
-0.82
3.71
7.19
9.84
12.01
13.97
15.67
16.84
17.23
16.78
15.80
14.75
14.01
13.64
13.42
12.97
12.16
11.17
10.45
10.37
10.91
11.62
11.78
10.86
8.67
5.61
2.25
-0.89
-3.61
-6.05
-8.52
-11.25
-14.28
-17.50
-20.66
-23.51
-25.80
-27.20
-27.30
-25.72
-22.22
-16.93
-10.32
-3.14
3.82
9.94
14.90
18.64
21.23
22.81
23.50
23.42
22.81
21.92
21.04
20.34
19.77
19.08
17.96
16.17
13.80
11.27
9.22
8.07
7.88
8.16
8.21
7.37
5.41
2.60
-0.51
-3.43
-5.92
-8.13
-10.40
-13.01
-16.09
-19.54
-23.06
-26.26
-28.67
-29.79
-29.24
-26.81
-22.62
-17.08
-10.91
-4.81
0.63
5.11
8.59
11.17
12.96
14.02
14.46
14.44
14.22
14.09
14.17
14.48
14.86
15.14
15.24
15.20
15.09
14.91
14.52
13.68
12.21
10.10
7.52
4.74
2.00
-0.65
-3.21
-5.70
-8.06
-10.17
-11.90
-13.29
-14.57
-16.10
-18.20
-20.95
-24.07
-26.95
-28.82
-28.98
-27.08
-23.19
-17.82
-11.77
-5.81
-0.44
4.18
8.21
11.82
15.07
17.72
19.47
20.10
19.74
18.75
17.69
17.00
16.83
17.04
17.33
17.40
17.05
16.28
15.15
13.80
12.30
10.64
8.73
6.38
3.51
0.18
-3.35
-6.68
-9.42
-11.40
-12.73
-13.83
-15.14
-17.04
-19.64
-22.84
-26.35
-29.87
-33.15
-35.96
-38.02
-38.98
-38.45
-36.17
-32.13
-26.76
-20.80
-15.08
-10.24
-6.50
-3.71
-1.48
0.50
2.28
3.65
4.29
4.01
2.95
1.56
0.37
-0.12
0.23
1.19
2.29
3.01
3.04
2.35
1.19
-0.13
-1.28
-2.16
-2.74
-3.07
-3.23
-3.28
-3.32
-3.44
-3.73
-4.23
-4.91
-5.71
-6.68
-7.86
-9.38
-11.34
-13.74
-16.49
-19.43
-22.32
-24.87
-26.60
-27.03
-25.69
-22.41
-17.46
-11.51
-5.47
-0.13
4.09
7.25
9.73
11.91
13.99
15.87
17.33
18.23
18.72
19.15
19.85
20.89
22.02
22.82
22.96
22.40
21.40
20.31
19.34
18.43
17.36
15.94
14.23
12.50
11.12
10.31
10.01
10.00
9.88
9.39
8.36
6.82
4.89
2.86
1.05
-0.15
-0.45
0.22
1.59
3.00
3.58
2.60
-0.18
-4.23
-8.36
-11.00
-10.87
-7.42
-1.22
6.37
13.62
19.09
22.04
22.47
20.93
18.10
14.61
10.87
7.23
4.01
1.63
0.40
0.40
1.42
2.99
4.64
6.00
7.01
7.78
8.42
8.93
9.07
8.53
7.04
4.67
1.78
-1.05
-3.28
-4.65
-5.34
-5.85
-6.75
-8.39
-10.62
-12.99
-14.84
-15.74
-15.65
-14.75
-13.33
-11.47
-9.04
-5.79
-1.58
3.54
9.28
15.19
20.80
25.63
29.30
31.49
31.99
30.80
28.16
24.55
20.55
16.69
13.28
10.39
7.79
5.06
1.70
-2.70
-8.36
-15.22
-22.94
-31.00
-38.76
-45.61
-51.00
-54.56
-56.16
-55.99
-54.61
-52.80
-51.44
-51.20
-52.33
-54.59
-57.23
-59.32
-59.85
-58.12
-53.82
-47.21
-39.04
-30.38
-22.33
-15.63
-10.57
-6.94
-4.33
-2.41
-1.10
-0.52
-0.78
-1.80
-3.24
-4.67
-5.74
-6.29
-6.34
-5.92
-5.04
-3.64
-1.75
0.45
2.59
4.29
5.28
5.47
4.98
4.00
2.78
1.47
0.13
-1.28
-2.88
-4.78
-7.01
-9.44
-11.70
-13.27
-13.59
-12.22
-8.98
-4.04
2.14
8.82
15.29
20.88
25.20
28.16
29.86
30.56
30.39
29.48
27.79
25.40
22.45
19.23
16.10
13.39
11.32
9.95
9.19
8.73
8.26
7.42
6.01
4.02
1.64
-0.83
-3.16
-5.22
-7.09
-8.89
-10.74
-12.66
-14.64
-16.71
-18.99
-21.68
-24.76
-27.94
-30.43
-31.25
-29.58
-25.11
-18.31
-10.32
-2.56
3.74
7.97
10.22
11.10
11.36
11.53
11.68
11.58
10.85
9.33
7.14
4.70
2.47
0.78
-0.31
-1.00
-1.49
-1.96
-2.37
-2.60
-2.48
-1.98
-1.27
-0.65
-0.56
-1.39
-3.36
-6.44
-10.36
-14.69
-19.01
-23.14
-26.99
-30.52
-33.47
-35.33
-35.43
-33.31
-29.04
-23.29
-17.07
-11.27
-6.29
-1.94
2.25
6.52
10.65
14.02
16.00
16.43
15.82
15.07
15.03
16.13
18.14
20.43
22.37
23.61
24.19
24.34
24.31
24.08
23.47
22.17
19.99
17.03
13.63
10.30
7.42
5.12
3.16
1.03
-1.85
-5.86
-10.95
-16.65
-22.12
-26.46
-28.97
-29.38
-27.80
-24.65
-20.45
-15.70
-10.77
-5.95
-1.53
2.22
5.05
6.87
7.81
8.17
8.35
8.64
9.25
10.21
11.43
12.76
13.96
14.82
15.17
14.98
14.29
13.23
11.93
10.41
8.60
6.37
3.63
0.41
-3.14
-6.81
-10.39
-13.75
-16.73
-19.24
-21.23
-22.73
-23.98
-25.32
-27.07
-29.22
-31.38
-32.76
-32.48
-29.88
-24.77
-17.54
-8.95
0.01
8.44
15.62
21.12
24.82
26.82
27.50
27.26
26.50
25.52
24.50
23.58
22.86
22.43
22.30
22.34
22.29
21.87
20.88
19.36
17.60
16.00
14.87
14.19
13.61
12.51
10.41
7.15
3.09
-1.09
-4.66
-7.12
-8.44
-8.98
-9.37
-10.29
-12.37
-16.11
-21.61
-28.47
-35.71
-41.90
-45.63
-45.94
-42.68
-36.49
-28.46
-19.75
-11.20
-3.27
3.93
10.40
16.11
20.90
24.55
26.96
28.29
28.97
29.66
30.89
32.87
35.31
37.57
38.98
39.19
38.26
36.64
34.81
33.02
31.20
29.09
26.49
23.41
20.08
16.84
13.90
11.29
8.89
6.42
3.66
0.48
-3.10
-6.99
-11.08
-15.30
-19.53
-23.54
-26.82
-28.73
-28.67
-26.34
-21.94
-16.06
-9.48
-2.85
3.46
9.39
14.96
20.05
24.46
27.89
30.16
31.35
31.79
31.92
32.20
32.95
34.25
35.91
37.54
38.63
38.85
38.12
36.73
35.12
33.62
32.16
30.29
27.48
23.37
18.21
12.61
7.38
3.07
-0.23
-2.86
-5.39
-8.28
-11.77
-15.91
-20.61
-25.62
-30.58
-34.84
-37.60
-38.05
-35.70
-30.60
-23.38
-15.13
-7.05
-0.12
5.19
8.89
11.35
13.05
14.29
15.17
15.55
15.26
14.20
12.50
10.47
8.48
6.80
5.47
4.32
3.02
1.28
-0.93
-3.39
-5.70
-7.49
-8.70
-9.57
-10.62
-12.27
-14.71
-17.73
-20.79
-23.29
-24.80
-25.29
-25.12
-24.98
-25.49
-26.96
-29.31
-32.05
-34.55
-36.26
-36.82
-35.97
-33.49
-29.08
-22.52
-13.98
-4.17
5.78
14.65
21.54
25.93
27.59
26.27
21.69
13.75
3.03
-9.10
-20.71
-29.92
-35.68
-37.94
-37.50
-35.29
-31.92
-27.45
-21.68
-14.68
-6.94
0.65
7.19
12.09
15.11
16.34
15.97
14.15
11.05
6.93
2.12
-2.98
-7.97
-12.53
-16.41
-19.46
-21.56
-22.68
-23.01
-23.03
-23.43
-24.88
-27.71
-31.60
-35.61
-38.44
-38.96
-36.68
-31.97
-25.86
-19.45
-13.39
-7.51
-1.05
6.74
16.05
26.16
35.65
43.10
47.69
49.68
50.26
51.12
53.69
58.65
65.64
73.34
79.58
81.62
76.69
62.85
39.97
10.28
-21.95
-51.63
-74.52
-88.47
-93.43
-90.65
-81.44
-66.53
-46.52
-22.83
1.50
22.31
35.60
39.32
34.31
23.88
12.34
3.27
-1.47
-1.89
0.90
5.64
11.40
17.68
24.09
30.16
35.21
38.62
40.01
39.41
37.29
34.36
31.37
28.91
27.28
26.46
26.23
26.29
26.46
26.70
27.16
28.05
29.52
31.51
33.73
35.65
36.70
36.36
34.33
30.56
25.24
18.63
11.08
2.85
-5.88
-14.88
-23.87
-32.49
-40.46
-47.69
-54.26
-60.22
-65.54
-69.94
-73.09
-74.72
-74.71
-72.98
-69.36
-63.62
-55.50
-45.08
-32.88
-19.77
-6.73
5.44
16.14
24.75
30.29
31.49
27.24
17.33
3.02
-13.08
-27.73
-38.15
-42.86
-41.96
-36.75
-28.94
-20.08
-11.17
-2.86
4.44
10.26
14.19
16.00
15.74
13.80
10.77
7.39
4.19
1.47
-0.87
-3.35
-6.69
-11.48
-17.82
-25.18
-32.52
-38.85
-43.58
-46.78
-49.05
-51.03
-53.09
-55.07
-56.51
-56.78
-55.34
-51.68
-45.31
-35.89
-23.56
-9.32
4.91
16.77
24.44
27.42
26.92
25.38
25.33
28.33
34.28
41.72
48.67
53.61
56.09
56.67
56.34
55.85
55.36
54.53
52.92
50.39
47.26
44.23
41.89
40.35
39.13
37.39
34.37
29.83
24.18
18.28
13.02
8.85
5.68
2.97
0.14
-3.07
-6.55
-9.87
-12.61
-14.55
-15.76
-16.44
-16.80
-16.83
-16.45
-15.57
-14.20
-12.53
-10.79
-9.27
-8.12
-7.39
-7.04
-6.90
-6.79
-6.44
-5.58
-4.00
-1.67
1.23
4.27
6.99
9.02
10.25
10.89
11.31
11.88
12.75
13.84
14.87
15.58
15.87
15.80
15.50
15.05
14.45
13.58
12.40
10.99
9.50
8.06
6.57
4.77
2.31
-0.84
-4.27
-7.10
-8.30
-7.14
-3.56
1.77
7.76
13.35
17.86
21.09
23.20
24.43
24.88
24.58
23.55
21.99
20.33
19.05
18.54
18.84
19.69
20.59
21.01
20.60
19.30
17.36
15.16
13.01
10.99
8.94
6.59
3.84
0.90
-1.84
-3.91
-5.09
-5.57
-5.89
-6.63
-8.23
-10.73
-13.82
-17.10
-20.25
-23.23
-26.19
-29.35
-32.75
-36.14
-38.97
-40.51
-40.11
-37.44
-32.59
-26.14
-18.94
-11.81
-5.30
0.36
5.23
9.38
12.73
14.99
15.89
15.32
13.61
11.42
9.57
8.71
9.03
10.29
11.93
13.41
14.44
15.03
15.41
15.83
16.41
17.06
17.62
17.87
17.68
17.06
16.02
14.62
12.85
10.79
8.65
6.73
5.45
5.10
5.74
7.14
8.69
9.54
8.85
5.97
0.65
-6.84
-15.85
-25.47
-34.77
-42.88
-49.11
-52.90
-53.93
-52.02
-47.31
-40.29
-31.73
-22.70
-14.19
-6.95
-1.33
2.85
6.06
8.95
12.02
15.40
18.84
21.81
23.67
23.98
22.53
19.53
15.39
10.54
5.34
-0.13
-5.96
-12.28
-19.08
-26.14
-33.04
-39.22
-44.22
-47.59
-48.98
-48.10
-44.84
-39.48
-32.74
-25.79
-19.85
-15.90
-14.29
-14.72
-16.41
-18.33
-19.54
-19.26
-17.05
-12.77
-6.67
0.63
8.23
15.22
20.85
24.75
26.97
27.83
27.76
27.21
26.46
25.67
24.88
24.08
23.29
22.51
21.76
21.03
20.31
19.52
18.68
17.84
17.09
16.46
15.93
15.36
14.60
13.57
12.21
10.56
8.59
6.27
3.59
0.63
-2.32
-4.87
-6.67
-7.65
-8.05
-8.45
-9.50
-11.66
-14.90
-18.65
-21.94
-23.73
-23.29
-20.39
-15.41
-9.06
-2.18
4.52
10.60
15.82
20.08
23.23
25.10
25.51
24.49
22.38
19.80
17.56
16.25
16.11
16.84
17.83
18.43
18.26
17.36
16.01
14.58
13.26
12.10
11.06
10.13
9.36
8.82
8.49
8.15
7.55
6.37
4.52
2.09
-0.59
-3.19
-5.57
-7.84
-10.37
-13.49
-17.19
-20.94
-23.75
-24.42
-22.05
-16.42
-8.03
2.05
12.63
22.68
31.54
38.69
43.66
45.85
44.66
39.79
31.55
20.96
9.57
-0.94
-9.26
-14.71
-17.36
-17.87
-17.23
-16.43
-16.22
-16.95
-18.54
-20.61
-22.77
-24.89
-27.05
-29.52
-32.41
-35.48
-38.14
-39.75
-39.90
-38.64
-36.43
-33.85
-31.45
-29.56
-28.43
-28.26
-29.17
-31.10
-33.64
-35.96
-37.08
-36.16
-32.85
-27.41
-20.62
-13.50
-6.95
-1.49
2.80
6.16
8.96
11.41
13.50
15.05
15.93
16.22
16.27
16.52
17.26
18.40
19.55
20.16
19.91
18.80
17.18
15.49
14.02
12.77
11.51
9.94
7.82
5.07
1.81
-1.70
-5.14
-8.16
-10.58
-12.45
-14.12
-16.16
-19.11
-23.25
-28.38
-33.83
-38.64
-41.89
-42.95
-41.63
-38.23
-33.34
-27.66
-21.83
-16.21
-10.98
-6.18
-1.85
1.88
4.86
7.05
8.57
9.65
10.50
11.12
11.31
10.82
9.60
7.98
6.56
5.93
6.31
7.42
8.46
8.60
7.25
4.34
0.28
-4.31
-8.89
-13.25
-17.41
-21.64
-26.24
-31.36
-37.04
-43.19
-49.57
-55.78
-61.13
-64.71
-65.56
-62.99
-56.95
-48.07
-37.50
-26.50
-16.03
-6.57
1.83
9.31
15.95
21.76
26.74
31.11
35.20
39.31
43.52
47.55
50.89
52.99
53.56
52.62
50.48
47.62
44.53
41.58
39.06
37.15
35.86
35.10
34.61
34.05
33.09
31.50
29.22
26.30
22.95
19.40
15.86
12.45
9.15
5.82
2.18
-1.97
-6.76
-11.98
-17.21
-21.76
-24.96
-26.28
-25.48
-22.64
-18.07
-12.27
-5.79
0.77
6.97
12.43
17.00
20.63
23.41
25.49
26.96
27.94
28.45
28.51
28.12
27.34
26.30
25.22
24.36
23.90
23.85
24.02
24.06
23.61
22.44
20.46
17.70
14.29
10.35
6.07
1.64
-2.67
-6.63
-10.08
-13.01
-15.51
-17.73
-19.79
-21.80
-23.83
-25.98
-28.23
-30.44
-32.11
-32.55
-30.96
-26.88
-20.38
-12.21
-3.50
4.68
11.63
17.24
21.89
26.13
30.41
34.99
40.05
45.66
51.75
57.83
62.91
65.57
64.66
59.82
51.98
43.11
35.48
30.74
29.21
29.89
31.01
30.94
28.82
24.68
19.18
13.05
6.75
0.37
-6.08
-12.55
-18.77
-24.37
-29.10
-33.02
-36.50
-39.96
-43.70
-47.70
-51.62
-55.05
-57.63
-59.19
-59.65
-59.05
-57.30
-54.44
-50.55
-45.89
-40.91
-36.08
-31.74
-28.08
-25.08
-22.64
-20.61
-18.92
-17.53
-16.48
-15.80
-15.60
-16.01
-17.23
-19.43
-22.51
-26.01
-28.93
-29.92
-27.57
-20.99
-10.21
3.64
18.65
32.72
44.31
52.81
58.45
61.87
63.56
63.67
62.12
58.90
54.33
49.08
43.89
39.22
35.06
31.04
26.79
22.29
18.00
14.73
13.26
13.99
16.70
20.64
24.74
27.99
29.81
30.28
30.05
30.03
30.92
32.81
35.16
37.04
37.65
36.69
34.37
31.14
27.22
22.46
16.48
9.14
0.86
-7.30
-14.11
-18.77
-21.25
-22.31
-23.01
-24.12
-25.83
-27.86
-29.71
-31.03
-31.80
-32.21
-32.61
-33.26
-34.26
-35.49
-36.60
-37.05
-36.25
-33.80
-29.63
-24.19
-18.20
-12.48
-7.58
-3.62
-0.41
2.38
4.87
6.86
7.98
7.94
6.87
5.35
4.28
4.36
5.75
7.92
9.90
10.74
9.96
7.75
4.74
1.74
-0.81
-2.81
-4.52
-6.20
-8.00
-9.86
-11.59
-13.05
-14.18
-15.11
-16.05
-17.19
-18.66
-20.48
-22.54
-24.80
-27.34
-30.25
-33.56
-36.97
-39.73
-40.84
-39.41
-35.19
-28.67
-21.04
-13.56
-7.15
-2.03
2.18
6.04
9.86
13.52
16.58
18.56
19.35
19.23
18.75
18.47
18.63
19.21
19.92
20.45
20.61
20.40
19.89
19.22
18.44
17.55
16.55
15.46
14.31
13.06
11.63
9.85
7.73
5.39
3.09
1.13
-0.37
-1.53
-2.72
-4.33
-6.65
-9.74
-13.39
-17.25
-20.85
-23.69
-25.26
-25.16
-23.13
-19.22
-13.84
-7.71
-1.72
3.34
7.00
9.21
10.28
10.65
10.71
10.59
10.22
9.52
8.54
7.52
6.87
6.84
7.50
8.67
9.99
11.24
12.32
13.25
14.01
14.50
14.61
14.36
13.94
13.63
13.57
13.53
12.95
11.07
7.30
1.38
-6.46
-15.54
-24.94
-33.63
-40.76
-45.76
-48.57
-49.57
-49.41
-48.64
-47.42
-45.54
-42.57
-38.26
-32.72
-26.39
-19.89
-13.62
-7.84
-2.67
1.76
5.26
7.73
9.34
10.67
12.52
15.66
20.25
25.65
30.58
33.59
33.73
31.06
26.66
22.20
19.22
18.34
19.06
19.97
19.42
16.36
10.76
3.65
-3.48
-9.33
-13.34
-15.81
-17.59
-19.60
-22.31
-25.70
-29.27
-32.50
-35.01
-36.59
-37.17
-36.68
-35.14
-32.67
-29.63
-26.50
-23.69
-21.34
-19.32
-17.34
-15.20
-12.96
-10.91
-9.46
-8.90
-9.21
-10.07
-10.94
-11.26
-10.60
-8.85
-6.26
-3.32
-0.50
1.98
4.26
6.76
9.76
13.25
16.61
18.94
19.43
17.83
14.66
10.96
7.87
6.12
5.89
6.78
8.20
9.61
10.73
11.51
12.05
12.52
13.12
14.22
16.29
19.75
24.84
31.42
38.98
46.78
54.04
60.14
64.67
67.42
68.26
67.15
64.13
59.46
53.59
47.15
40.81
35.11
30.40
26.68
23.73
21.10
18.36
15.33
12.20
9.52
7.98
8.04
9.62
12.07
14.28
15.16
14.07
11.06
6.84
2.31
-1.88
-5.75
-9.98
-15.56
-23.27
-33.23
-44.94
-57.44
-69.76
-81.05
-90.64
-97.83
-101.97
-102.55
-99.51
-93.51
-85.84
-78.06
-71.38
-66.32
-62.52
-58.99
-54.62
-48.65
-40.96
-32.06
-22.90
-14.48
-7.56
-2.48
0.80
2.50
2.92
2.50
1.97
2.38
4.90
10.37
18.84
29.39
40.28
49.61
55.91
58.61
58.05
55.28
51.55
47.98
45.20
43.29
41.84
40.14
37.48
33.38
27.87
21.52
15.26
10.21
7.32
7.19
9.90
15.12
22.21
30.37
38.86
47.02
54.56
61.37
67.67
73.76
79.95
86.36
92.81
98.65
102.88
104.31
101.86
94.91
83.54
68.61
51.60
34.38
18.71
5.94
-3.14
-8.50
-10.71
-10.86
-10.36
-10.59
-12.35
-15.60
-19.41
-22.42
-23.68
-23.42
-23.30
-25.83
-33.12
-45.80
-62.44
-80.13
-95.71
-107.00
-113.52
-116.19
-116.56
-115.91
-114.80
-113.08
-110.23
-105.78
-99.42
-90.89
-79.84
-65.85
-48.70
-28.79
-7.30
13.91
33.05
49.16
62.52
74.31
85.37
94.89
99.83
95.66
78.41
46.90
3.93
-44.26
-90.07
-127.18
-152.31
-165.54
-169.22
-166.32
-159.23
-149.40
-137.88
-125.93
-115.29
-107.81
-104.68
-105.78
-109.64
-114.05
-117.23
-118.64
-119.19
-120.36
-122.93
-125.92
-126.52
-121.08
-106.65
-82.04
-48.11
-7.08
38.27
85.07
130.33
170.73
202.95
224.35
234.01
233.14
224.73
212.28
198.61
185.17
172.19
159.43
146.83
134.74
123.65
113.73
104.69
95.92
86.85
77.29
67.42
57.71
48.67
40.54
33.25
26.46
19.72
12.64
5.02
-3.14
-11.64
-20.13
-28.23
-35.48
-41.39
-45.52
-47.48
-47.01
-43.99
-38.48
-30.68
-20.99
-10.01
1.43
12.32
21.60
28.40
32.18
32.80
30.53
25.96
19.79
12.75
5.49
-1.44
-7.57
-12.56
-16.18
-18.25
-18.73
-17.68
-15.27
-11.84
-7.87
-3.92
-0.57
1.77
2.90
2.81
1.66
-0.35
-3.05
-6.31
-10.01
-14.08
-18.31
-22.50
-26.34
-29.50
-31.61
-32.28
-31.25
-28.41
-23.94
-18.33
-12.26
-6.42
-1.28
3.01
6.54
9.48
11.89
13.68
14.70
14.95
14.75
14.66
15.13
16.27
17.67
18.64
18.57
17.35
15.41
13.49
12.29
11.96
12.13
12.06
11.08
8.86
5.56
1.76
-1.84
-4.64
-6.35
-7.01
-7.07
-7.25
-8.37
-11.09
-15.66
-21.69
-28.11
-33.40
-36.06
-35.21
-31.06
-24.95
-18.84
-14.55
-12.91
-13.50
-14.88
-15.36
-13.83
-10.21
-5.21
0.24
5.67
11.39
18.25
27.03
37.81
49.74
61.16
70.36
76.14
78.36
77.71
75.35
72.10
68.10
62.74
54.99
43.96
29.07
10.09
-12.88
-39.03
-66.55
-92.26
-112.37
-123.69
-125.01
-117.66
-104.61
-88.78
-71.43
-51.90
-28.75
-1.65
27.49
54.82
76.24
89.37
94.38
93.47
89.28
83.58
76.87
68.93
59.78
50.10
41.17
34.15
29.43
26.52
24.37
21.88
18.47
14.24
9.82
6.05
3.66
2.97
3.86
5.83
8.21
10.30
11.55
11.54
10.09
7.19
3.11
-1.74
-6.73
-11.27
-14.97
-17.63
-19.30
-20.10
-20.22
-19.98
-19.89
-20.63
-22.74
-26.32
-30.79
-35.02
-37.69
-37.90
-35.41
-30.69
-24.53
-17.68
-10.59
-3.53
3.25
9.29
14.06
17.19
18.68
18.94
18.62
18.18
17.68
16.63
14.34
10.26
4.31
-3.10
-11.22
-19.35
-27.17
-34.68
-42.12
-49.67
-57.21
-64.31
-70.40
-74.97
-77.79
-78.97
-78.84
-77.89
-76.53
-75.05
-73.56
-71.90
-69.64
-66.11
-60.55
-52.31
-41.27
-27.93
-13.38
1.04
14.22
25.74
35.98
45.63
55.28
64.77
73.12
78.97
81.17
79.47
74.63
68.14
61.49
55.59
50.54
45.77
40.55
34.47
27.75
21.07
15.17
10.45
6.67
3.15
-0.94
-6.13
-12.30
-18.68
-24.13
-27.68
-28.93
-28.32
-27.01
-26.38
-27.34
-29.88
-32.93
-34.66
-33.19
-27.29
-16.76
-2.56
13.19
27.31
35.79
34.59
21.08
-4.49
-38.16
-72.90
-100.78
-115.72
-115.61
-102.65
-81.81
-58.21
-35.01
-12.76
9.63
33.09
57.19
79.87
98.51
111.10
117.21
117.86
114.92
110.03
103.86
96.12
86.09
73.42
58.62
43.20
28.98
17.40
8.89
2.75
-2.42
-7.93
-14.32
-21.08
-26.85
-30.17
-30.15
-26.93
-21.65
-15.89
-11.11
-8.04
-6.60
-6.15
-5.92
-5.38
-4.50
-3.66
-3.34
-3.91
-5.33
-7.18
-8.80
-9.56
-9.14
-7.59
-5.34
-2.88
-0.59
1.52
3.67
6.18
9.11
12.13
14.52
15.50
14.61
11.97
8.21
4.07
-0.04
-4.24
-9.10
-15.27
-23.01
-32.03
-41.50
-50.39
-57.75
-62.82
-64.95
-63.65
-58.64
-50.09
-38.73
-25.73
-12.26
0.81
13.05
24.32
34.25
41.98
46.08
45.07
37.90
24.60
6.53
-13.82
-33.20
-48.42
-57.00
-57.80
-51.19
-38.77
-22.84
-5.74
10.38
23.72
32.59
35.62
32.09
22.39
8.35
-7.11
-20.76
-30.16
-34.43
-34.47
-32.28
-30.03
-29.21
-30.08
-31.82
-33.04
-32.45
-29.42
-24.12
-17.29
-9.94
-3.05
2.52
5.73
5.63
1.60
-5.95
-15.14
-22.87
-25.77
-21.61
-10.26
6.12
24.10
40.32
52.82
61.34
66.81
70.26
72.11
72.00
69.32
63.86
56.18
47.39
38.61
30.45
22.79
15.10
6.94
-1.69
-10.30
-18.19
-24.89
-30.29
-34.61
-38.02
-40.43
-41.42
-40.56
-37.78
-33.50
-28.53
-23.63
-19.04
-14.30
-8.54
-1.13
7.79
17.07
24.99
29.90
30.99
28.52
23.49
17.13
10.30
3.42
-3.43
-10.09
-16.28
-21.59
-25.99
-29.92
-34.17
-39.59
-46.63
-55.25
-64.86
-74.71
-83.92
-91.51
-96.31
-97.03
-92.55
-82.41
-67.28
-49.01
-30.26
-13.67
-1.06
7.15
11.89
14.90
17.95
22.18
27.90
34.73
41.96
49.09
55.89
62.36
68.44
73.84
78.09
80.78
81.87
81.71
80.98
80.32
80.12
80.28
80.43
80.11
79.05
77.23
74.94
72.58
70.44
68.67
67.13
65.50
63.33
60.16
55.67
49.84
42.92
35.40
27.81
20.48
13.40
6.18
-1.73
-10.76
-20.87
-31.46
-41.50
-49.78
-55.34
-57.78
-57.34
-54.74
-50.89
-46.65
-42.62
-39.23
-36.71
-35.26
-34.99
-35.87
-37.66
-39.99
-42.46
-44.80
-46.90
-48.72
-50.13
-50.83
-50.34
-48.22
-44.33
-39.07
-33.20
-27.72
-23.43
-20.63
-19.09
-18.12
-17.02
-15.28
-12.79
-9.70
-6.35
-3.05
-0.13
2.01
2.93
2.21
-0.28
-4.12
-8.37
-11.83
-13.48
-12.85
-10.28
-6.67
-3.12
-0.49
0.87
1.11
0.65
-0.12
-1.01
-2.13
-3.61
-5.50
-7.62
-9.58
-11.06
-11.92
-12.38
-12.84
-13.68
-14.98
-16.40
-17.27
-16.79
-14.41
-10.01
-4.05
2.61
9.02
14.41
18.40
20.99
22.32
22.47
21.41
18.95
14.98
9.56
3.03
-4.03
-10.84
-16.56
-20.53
-22.38
-22.25
-20.75
-18.69
-16.70
-14.84
-12.64
-9.32
-4.38
2.18
9.76
17.56
25.00
31.82
38.07
43.66
48.32
51.56
53.09
53.06
52.08
50.91
50.03
49.37
48.30
46.05
42.19
36.96
31.30
26.45
23.41
22.42
22.85
23.43
22.85
20.30
15.82
10.25
4.71
0.18
-2.98
-4.95
-6.40
-8.30
-11.89
-18.53
-29.20
-43.94
-61.22
-77.94
-90.12
-94.24
-88.54
-73.75
-52.78
-29.56
-7.75
10.32
23.93
33.57
40.42
45.77
50.73
55.96
61.66
67.39
72.38
75.73
76.91
75.95
73.46
70.44
67.88
66.53
66.55
67.37
67.53
64.91
57.27
43.14
22.72
-1.88
-27.16
-49.40
-65.90
-75.70
-79.47
-78.60
-74.51
-68.16
-60.25
-51.58
-43.30
-36.55
-32.00
-29.40
-27.58
-24.87
-19.69
-11.28
0.16
13.35
26.23
36.33
41.26
39.27
29.77
13.69
-6.62
-27.69
-45.73
-57.42
-60.62
-54.79
-41.08
-21.97
-0.78
19.08
34.80
44.65
48.31
46.69
41.61
35.16
29.12
24.58
21.81
20.41
19.65
18.75
17.19
14.65
11.06
6.42
0.72
-6.03
-13.77
-22.26
-31.00
-39.24
-46.16
-51.05
-53.56
-53.79
-52.26
-49.71
-46.81
-44.01
-41.43
-38.94
-36.27
-33.02
-28.72
-22.78
-14.72
-4.26
8.27
22.00
35.56
47.39
56.12
60.83
61.17
57.38
50.26
40.95
30.77
20.96
12.46
5.74
0.79
-2.72
-5.29
-7.31
-9.02
-10.44
-11.53
-12.26
-12.70
-13.00
-13.38
-14.16
-15.71
-18.41
-22.50
-27.92
-34.15
-40.14
-44.59
-46.35
-44.85
-40.22
-33.25
-25.00
-16.45
-8.28
-0.75
6.07
12.23
17.73
22.43
26.14
28.63
29.82
29.84
29.09
28.11
27.40
27.22
27.55
28.09
28.51
28.54
28.09
27.15
25.76
23.99
21.91
19.52
16.86
13.89
10.63
7.15
3.70
0.52
-2.16
-4.34
-6.23
-8.20
-10.56
-13.53
-17.15
-21.34
-25.91
-30.42
-34.20
-36.37
-36.13
-33.09
-27.48
-20.09
-11.95
-3.93
3.55
10.51
17.07
23.14
28.26
31.82
33.36
33.01
31.52
30.01
29.52
30.42
32.41
34.63
36.19
36.56
35.66
33.79
31.31
28.39
24.99
20.99
16.42
11.48
6.46
1.61
-3.00
-7.37
-11.50
-15.33
-18.72
-21.63
-24.13
-26.36
-28.43
-30.29
-31.79
-32.76
-33.09
-32.75
-31.67
-29.68
-26.48
-21.95
-16.26
-9.98
-3.97
1.04
4.72
7.18
8.78
9.69
9.68
8.12
4.31
-2.08
-10.72
-20.67
-30.64
-39.44
-46.40
-51.56
-55.60
-59.43
-63.76
-68.74
-73.84
-78.02
-80.08
-79.08
-74.62
-66.80
-56.10
-43.11
-28.43
-12.82
2.64
16.49
27.14
33.25
34.28
30.68
23.76
15.31
7.08
0.51
-3.48
-4.41
-2.27
2.52
9.07
16.15
22.54
27.27
30.01
31.03
30.92
30.35
29.75
29.22
28.67
27.94
26.95
25.83
24.76
23.99
23.64
23.68
23.80
23.59
22.73
21.12
19.10
17.25
16.08
15.68
15.59
14.88
12.63
8.38
2.47
-4.19
-10.44
-15.44
-18.96
-21.36
-23.23
-25.10
-27.18
-29.49
-31.95
-34.53
-37.17
-39.63
-41.50
-42.08
-40.73
-37.05
-31.09
-23.38
-14.76
-6.21
1.46
7.66
12.21
15.32
17.45
19.21
21.04
23.09
25.13
26.76
27.67
27.77
27.24
26.46
25.73
25.17
24.78
24.46
24.20
24.07
24.08
24.14
23.86
22.77
20.38
16.53
11.48
5.86
0.51
-3.93
-7.18
-9.44
-11.30
-13.47
-16.49
-20.55
-25.40
-30.52
-35.27
-38.99
-41.13
-41.27
-39.16
-34.75
-28.35
-20.61
-12.38
-4.57
2.21
7.65
11.86
15.12
17.66
19.60
20.91
21.68
22.07
22.43
23.03
23.90
24.78
25.20
24.79
23.46
21.50
19.40
17.62
16.31
15.28
14.12
12.34
9.61
5.79
1.07
-4.16
-9.30
-13.67
-16.70
-18.11
-18.00
-16.84
-15.41
-14.44
-14.53
-15.84
-18.13
-20.76
-22.95
-23.91
-23.06
-20.18
-15.36
-9.07
-1.92
5.38
12.21
18.15
22.94
26.47
28.67
29.61
29.45
28.65
27.78
27.42
27.91
29.05
30.30
30.97
30.63
29.19
26.89
24.09
20.99
17.70
14.23
10.69
7.29
4.23
1.60
-0.78
-3.22
-6.09
-9.70
-14.15
-19.29
-24.73
-29.96
-34.44
-37.86
-40.12
-41.38
-41.84
-41.67
-40.90
-39.52
-37.56
-35.06
-32.06
-28.52
-24.43
-19.84
-15.02
-10.35
-6.07
-2.03
2.32
7.56
13.94
21.02
27.85
33.35
36.90
38.61
39.11
39.23
39.42
39.59
39.21
37.73
34.90
31.04
27.00
23.82
22.44
23.17
25.54
28.31
29.78
28.34
23.02
13.79
1.59
-11.81
-24.47
-34.66
-41.38
-44.86
-46.66
-49.70
-57.51
-72.82
-96.16
-125.01
-154.20
-177.38
-189.39
-187.75
-173.32
-149.42
-120.20
-89.19
-58.65
-29.67
-2.86
21.15
41.67
58.16
70.55
79.30
85.11
88.64
90.34
90.42
88.97
86.26
82.65
78.69
74.88
71.49
68.55
65.95
63.53
61.18
59.03
57.34
56.45
56.58
57.30
57.18
53.66
43.79
25.58
-0.55
-31.21
-60.84
-83.76
-96.24
-97.88
-91.24
-80.38
-69.03
-59.27
-51.46
-44.93
-38.84
-32.67
-26.22
-19.43
-12.16
-4.33
4.00
12.48
20.53
27.49
32.71
35.84
36.95
36.59
35.61
34.85
34.72
35.02
35.09
34.11
31.63
27.75
23.10
18.52
14.60
11.44
8.65
5.54
1.54
-3.57
-9.49
-15.47
-20.55
-23.88
-25.04
-24.06
-21.29
-17.12
-11.78
-5.23
2.52
11.20
20.07
28.03
34.02
37.43
38.31
37.41
35.81
34.48
33.94
34.13
34.55
34.56
33.76
32.12
30.04
28.07
26.58
25.54
24.47
22.77
19.98
16.01
11.19
6.08
1.20
-3.17
-7.05
-10.68
-14.36
-18.31
-22.62
-27.09
-31.37
-34.95
-37.30
-38.00
-36.83
-33.82
-29.16
-23.16
-16.16
-8.61
-1.04
5.95
11.72
15.88
18.30
19.29
19.38
19.16
18.93
18.75
18.40
17.68
16.54
15.13
13.71
12.46
11.41
10.48
9.57
8.59
7.47
6.11
4.26
1.67
-1.84
-6.09
-10.69
-15.06
-18.81
-21.89
-24.57
-27.35
-30.61
-34.57
-39.04
-43.54
-47.30
-49.41
-49.05
-45.76
-39.62
-31.32
-21.91
-12.50
-3.93
3.37
9.33
14.03
17.57
19.93
21.16
21.39
20.97
20.37
19.96
19.88
19.96
19.89
19.32
18.15
16.53
14.80
13.32
12.21
11.34
10.21
8.34
5.40
1.48
-3.00
-7.40
-11.21
-14.22
-16.58
-18.79
-21.36
-24.71
-28.95
-33.89
-38.99
-43.54
-46.72
-47.82
-46.39
-42.34
-36.03
-28.10
-19.36
-10.60
-2.39
4.86
10.91
15.53
18.61
20.14
20.40
19.96
19.47
19.55
20.38
21.74
23.05
23.72
23.46
22.37
20.84
19.21
17.62
15.98
14.05
11.77
9.25
6.69
4.27
1.99
-0.30
-2.72
-5.33
-8.04
-10.72
-13.30
-15.88
-18.66
-21.89
-25.69
-29.87
-33.92
-36.95
-38.02
-36.47
-32.17
-25.69
-17.99
-10.11
-2.78
3.68
9.32
14.24
18.37
21.52
23.46
24.18
24.00
23.49
23.23
23.56
24.48
25.59
26.39
26.48
25.78
24.56
23.23
22.11
21.17
20.10
18.50
16.14
13.19
10.08
7.33
5.21
3.66
2.24
0.47
-2.01
-5.29
-9.24
-13.64
-18.16
-22.44
-26.05
-28.43
-29.07
-27.60
-24.01
-18.70
-12.36
-5.74
0.51
6.04
10.82
14.94
18.53
21.59
24.03
25.71
26.59
26.72
26.30
25.63
24.97
24.50
24.22
23.98
23.57
22.79
21.62
20.17
18.67
17.25
15.89
14.39
12.45
9.96
7.04
4.03
1.28
-1.05
-3.08
-5.19
-7.85
-11.42
-16.00
-21.37
-26.96
-31.94
-35.37
-36.48
-34.89
-30.82
-25.01
-18.43
-11.95
-6.05
-0.82
3.91
8.19
11.95
14.84
16.57
17.09
16.66
15.84
15.20
15.04
15.30
15.56
15.37
14.48
13.02
11.38
9.97
8.93
8.04
6.86
4.94
2.13
-1.36
-5.05
-8.46
-11.30
-13.55
-15.45
-17.27
-19.31
-21.77
-24.79
-28.46
-32.76
-37.35
-41.65
-44.80
-45.91
-44.37
-40.10
-33.57
-25.67
-17.40
-9.60
-2.79
2.89
7.51
11.21
14.06
16.04
17.12
17.38
17.09
16.65
16.43
16.59
16.98
17.25
17.00
16.06
14.55
12.75
10.99
9.39
7.90
6.32
4.47
2.23
-0.40
-3.37
-6.48
-9.52
-12.24
-14.53
-16.48
-18.36
-20.63
-23.63
-27.47
-31.79
-35.83
-38.63
-39.33
-37.49
-33.20
-27.06
-19.88
-12.44
-5.27
1.49
7.89
13.97
19.63
24.50
28.11
30.10
30.45
29.54
28.13
27.12
27.16
28.36
30.22
31.79
32.04
30.28
26.39
20.80
14.29
7.75
1.91
-2.83
-6.32
-8.70
-10.30
-11.60
-13.09
-15.23
-18.28
-22.25
-26.99
-32.20
-37.67
-43.22
-48.71
-53.93
-58.53
-61.99
-63.80
-63.63
-61.53
-57.90
-53.40
-48.66
-44.13
-39.98
-36.25
-32.88
-29.88
-27.22
-24.73
-21.96
-18.14
-12.41
-4.18
6.56
19.07
32.07
44.09
53.94
61.01
65.31
67.24
67.42
66.29
64.14
61.10
57.28
52.92
48.30
43.79
39.67
36.04
32.75
29.48
25.89
21.72
16.95
11.66
5.96
-0.04
-6.05
-11.58
-15.85
-18.07
-17.73
-14.87
-10.16
-4.59
0.82
5.44
9.03
11.70
13.60
14.83
15.47
15.64
15.69
15.99
16.83
18.19
19.68
20.75
20.84
19.76
17.76
15.37
13.21
11.65
10.67
10.00
9.28
8.23
6.83
5.14
3.32
1.49
-0.29
-2.03
-3.80
-5.77
-8.22
-11.39
-15.34
-19.81
-24.15
-27.52
-29.23
-28.92
-26.63
-22.69
-17.45
-11.24
-4.40
2.65
9.24
14.65
18.21
19.62
19.04
17.06
14.56
12.28
10.76
10.05
9.86
9.65
8.95
7.51
5.38
2.89
0.38
-1.88
-3.90
-5.85
-8.01
-10.45
-13.08
-15.55
-17.54
-18.94
-19.93
-21.04
-22.86
-25.79
-29.91
-34.87
-40.16
-45.14
-49.29
-52.18
-53.39
-52.57
-49.46
-44.12
-36.98
-28.76
-20.24
-12.03
-4.45
2.39
8.43
13.57
17.57
20.24
21.52
21.63
20.92
19.92
19.01
18.43
18.25
18.35
18.54
18.61
18.37
17.70
16.61
15.18
13.46
11.43
9.01
6.13
2.86
-0.51
-3.59
-6.02
-7.71
-8.86
-9.99
-11.75
-14.63
-18.75
-23.66
-28.41
-31.76
-32.64
-30.50
-25.49
-18.45
-10.43
-2.44
4.93
11.41
16.93
21.43
24.81
27.05
28.30
28.99
29.63
30.63
32.07
33.67
34.93
35.39
34.89
33.72
32.48
31.82
32.13
33.36
34.96
36.12
36.02
34.18
30.51
25.46
19.85
14.68
10.79
8.50
7.36
6.12
3.04
-3.44
-14.03
-28.05
-43.55
-57.85
-68.33
-73.32
-72.39
-66.38
-56.84
-45.50
-33.79
-22.64
-12.57
-3.81
3.50
9.25
13.46
16.37
18.44
20.24
22.24
24.72
27.64
30.69
33.48
35.53
36.49
36.08
34.21
31.03
26.84
22.12
17.19
12.05
6.22
-1.06
-10.55
-22.61
-36.94
-52.58
-67.90
-80.92
-89.48
-91.70
-86.57
-74.33
-56.64
-36.24
-16.10
1.37
14.79
23.85
28.80
30.18
28.65
25.11
20.86
17.39
16.04
17.43
21.38
27.00
33.18
38.92
43.44
46.19
46.77
45.09
41.49
36.83
32.29
28.86
27.00
26.52
26.79
27.09
27.00
26.41
25.28
23.55
20.99
17.40
12.78
7.46
1.98
-3.15
-7.74
-12.08
-16.81
-22.58
-29.67
-37.68
-45.67
-52.60
-57.93
-62.08
-66.31
-72.08
-80.25
-90.36
-100.60
-108.30
-110.71
-105.82
-92.74
-71.78
-44.27
-12.45
20.59
51.05
74.80
88.27
89.46
78.92
59.89
37.48
17.26
3.57
-1.56
1.25
9.60
20.39
31.01
39.77
45.77
48.56
47.80
43.36
35.57
25.44
14.50
4.39
-3.74
-9.55
-13.40
-16.03
-17.84
-18.66
-17.84
-14.75
-9.28
-2.13
5.49
12.38
17.87
21.96
25.10
27.66
29.65
30.69
30.43
28.88
26.63
24.58
23.42
23.27
23.55
23.25
21.39
17.38
11.13
2.93
-6.82
-17.75
-29.59
-41.98
-54.37
-66.01
-76.20
-84.61
-91.46
-97.51
-103.67
-110.60
-118.45
-126.76
-134.67
-141.24
-145.61
-147.15
-145.41
-140.10
-131.14
-118.80
-103.73
-86.95
-69.60
-52.57
-36.19
-20.13
-3.53
14.49
34.18
54.87
74.98
92.65
106.45
116.00
121.92
125.34
127.22
127.89
127.13
124.52
119.94
113.80
106.80
99.60
92.54
85.51
78.23
70.46
62.24
53.90
45.95
38.84
32.75
27.44
22.36
16.75
10.14
2.54
-5.27
-12.00
-16.36
-17.44
-15.24
-10.52
-4.49
1.74
7.45
12.44
16.79
20.50
23.44
25.30
25.90
25.32
23.99
22.48
21.28
20.62
20.41
20.42
20.36
20.06
19.51
18.75
17.86
16.83
15.57
13.90
11.75
9.06
5.94
2.58
-0.84
-4.17
-7.41
-10.59
-13.83
-17.20
-20.83
-24.76
-28.91
-33.03
-36.59
-38.90
-39.21
-37.02
-32.29
-25.55
-17.77
-10.02
-3.24
2.15
6.11
8.86
10.65
11.58
11.64
10.92
9.63
8.14
6.92
6.30
6.31
6.74
7.23
7.42
7.08
6.10
4.48
2.33
-0.14
-2.71
-5.14
-7.31
-9.20
-10.94
-12.69
-14.58
-16.71
-19.20
-22.19
-25.80
-30.11
-34.86
-39.48
-43.06
-44.62
-43.46
-39.43
-33.00
-25.09
-16.79
-9.00
-2.28
3.12
7.24
10.21
12.22
13.52
14.34
14.88
15.29
15.59
15.74
15.67
15.30
14.63
13.68
12.51
11.12
9.55
7.80
5.89
3.81
1.53
-0.97
-3.68
-6.53
-9.42
-12.27
-14.99
-17.62
-20.23
-23.07
-26.38
-30.27
-34.57
-38.71
-41.84
-43.05
-41.74
-37.80
-31.75
-24.45
-16.79
-9.38
-2.51
3.78
9.42
14.20
17.79
19.90
20.44
19.73
18.39
17.10
16.42
16.52
17.20
18.03
18.52
18.35
17.45
15.96
14.16
12.27
10.44
8.63
6.74
4.64
2.30
-0.19
-2.68
-5.01
-7.20
-9.47
-12.17
-15.65
-20.00
-24.86
-29.42
-32.59
-33.38
-31.30
-26.57
-20.01
-12.75
-5.76
0.44
5.85
10.70
15.24
19.44
23.02
25.66
27.18
27.75
27.81
27.83
28.12
28.71
29.36
29.78
29.76
29.28
28.46
27.47
26.34
24.93
23.02
20.41
17.12
13.38
9.58
6.11
3.17
0.77
-1.33
-3.47
-5.99
-9.15
-13.01
-17.38
-21.76
-25.34
-27.19
-26.50
-22.94
-16.79
-8.93
-0.47
7.50
14.31
19.68
23.62
26.27
27.87
28.69
29.04
29.34
29.88
30.71
31.60
32.14
31.86
30.49
27.94
24.31
19.86
14.93
9.92
5.27
1.27
-1.95
-4.54
-6.83
-9.23
-12.06
-15.53
-19.71
-24.57
-30.02
-35.91
-41.98
-47.69
-52.27
-54.79
-54.39
-50.71
-44.10
-35.77
-27.38
-20.50
-15.89
-13.12
-10.48
-5.51
4.17
20.04
42.10
68.69
96.83
122.93
143.62
156.60
161.07
157.70
148.16
134.31
117.61
98.81
78.21
56.04
32.87
9.69
-12.37
-32.32
-49.62
-64.21
-76.24
-85.83
-92.83
-96.91
-97.72
-95.30
-90.23
-83.58
-76.51
-69.89
-63.93
-58.20
-51.97
-44.62
-36.01
-26.51
-16.81
-7.58
0.67
7.54
12.63
15.33
15.08
11.69
5.62
-1.92
-9.41
-15.59
-19.97
-22.85
-24.97
-27.01
-29.24
-31.75
-34.78
-39.12
-45.82
-55.68
-68.49
-82.73
-96.03
-106.10
-111.76
-113.31
-112.30
-110.57
-109.47
-109.50
-110.49
-112.14
-114.33
-117.09
-120.04
-122.06
-121.37
-116.36
-106.63
-93.35
-78.71
-64.45
-50.59
-35.30
-16.15
7.92
35.46
62.77
85.66
101.33
109.35
111.04
108.01
101.15
90.75
77.74
64.68
55.61
54.34
62.48
78.17
96.59
111.99
120.08
119.53
111.90
100.43
88.25
77.22
67.72
59.18
50.90
42.59
34.44
26.79
19.94
14.07
9.32
6.03
4.64
5.61
9.06
14.61
21.48
28.61
35.00
39.88
42.93
44.26
44.34
43.77
43.06
42.42
41.76
40.81
39.31
37.26
34.89
32.54
30.48
28.71
27.06
25.20
22.87
19.93
16.45
12.60
8.63
4.82
1.34
-1.76
-4.61
-7.51
-10.85
-14.95
-19.94
-25.55
-31.10
-35.60
-37.97
-37.48
-33.95
-27.94
-20.50
-12.86
-6.01
-0.53
3.47
6.18
7.81
8.54
8.52
7.87
6.82
5.71
4.88
4.52
4.69
5.12
5.45
5.29
4.39
2.78
0.64
-1.75
-4.19
-6.56
-8.89
-11.17
-13.31
-15.13
-16.44
-17.19
-17.51
-17.78
-18.44
-19.83
-22.07
-24.97
-27.97
-30.26
-31.07
-29.84
-26.44
-21.23
-14.91
-8.29
-2.03
3.42
7.95
11.56
14.33
16.30
17.49
17.96
17.78
17.14
16.21
15.20
14.23
13.40
12.69
12.00
11.14
9.83
7.88
5.16
1.71
-2.22
-6.20
-9.74
-12.29
-13.49
-13.15
-11.35
-8.40
-4.92
-1.79
-0.18
-1.23
-5.60
-13.08
-22.39
-31.48
-38.25
-41.34
-40.71
-37.51
-33.46
-30.00
-27.71
-26.30
-24.94
-22.99
-20.18
-16.71
-12.91
-9.09
-5.46
-2.31
-0.04
0.93
0.42
-1.13
-2.61
-2.65
-0.11
5.25
12.58
20.16
26.06
28.79
27.77
23.25
16.00
6.91
-3.25
-13.77
-23.82
-32.42
-38.46
-41.08
-39.95
-35.42
-28.38
-19.87
-10.84
-1.96
6.34
13.71
19.77
24.13
26.57
27.11
26.07
24.08
21.82
19.83
18.37
17.38
16.56
15.53
13.93
11.62
8.63
5.30
2.06
-0.66
-2.68
-4.14
-5.45
-7.11
-9.45
-12.40
-15.49
-18.11
-19.80
-20.55
-20.83
-21.39
-23.02
-26.22
-31.16
-37.58
-44.75
-51.42
-55.93
-56.59
-52.25
-42.94
-29.98
-15.60
-2.15
8.75
16.65
22.02
25.62
27.86
28.52
26.99
22.89
16.63
9.67
4.21
2.40
5.48
13.09
23.35
33.40
40.59
43.54
42.60
39.58
36.82
36.17
38.18
42.01
45.81
47.29
44.42
35.83
21.17
1.56
-20.45
-41.31
-57.34
-65.96
-66.54
-60.51
-50.65
-39.90
-30.28
-22.42
-15.85
-9.65
-3.21
3.66
10.78
18.03
25.49
33.33
41.54
49.64
56.76
61.79
63.91
62.94
59.52
54.97
50.83
48.33
47.92
49.23
51.22
52.74
52.89
51.27
47.95
43.25
37.59
31.33
24.88
18.53
12.48
6.73
1.05
-4.85
-11.08
-17.35
-23.03
-27.36
-29.76
-30.05
-28.43
-25.31
-21.04
-15.89
-10.01
-3.52
3.39
10.53
17.71
24.64
30.71
34.86
35.68
31.94
23.31
10.89
-2.87
-14.94
-22.79
-25.39
-23.38
-18.71
-13.67
-10.11
-8.99
-10.41
-13.95
-18.92
-24.53
-29.90
-34.20
-36.76
-37.38
-36.37
-34.53
-33.06
-33.15
-35.73
-41.05
-48.59
-57.28
-65.88
-73.66
-80.60
-87.43
-95.02
-103.86
-113.63
-123.19
-130.98
-135.44
-135.45
-130.42
-120.38
-105.84
-87.90
-68.09
-48.13
-29.46
-12.78
2.03
15.60
28.60
41.23
53.09
63.35
71.30
76.49
79.02
79.18
77.41
74.09
69.54
64.17
58.43
52.84
47.74
43.22
39.06
34.82
30.10
24.66
18.66
12.69
7.73
4.85
4.90
8.18
14.27
22.14
30.42
37.93
43.87
48.02
50.59
51.97
52.55
52.49
51.88
50.75
49.29
47.73
46.40
45.49
44.99
44.65
44.08
42.87
40.77
37.72
33.89
29.69
25.55
21.84
18.85
16.55
14.72
12.78
9.85
4.86
-3.26
-15.32
-31.54
-51.20
-72.67
-93.65
-111.73
-125.07
-132.79
-134.97
-132.22
-125.23
-114.37
-99.68
-81.00
-58.33
-32.03
-3.03
26.85
54.77
77.11
90.36
92.07
81.92
61.82
35.26
6.33
-21.25
-44.48
-61.14
-69.48
-68.32
-57.41
-37.82
-12.13
16.05
42.68
64.18
77.93
82.81
79.36
69.57
56.48
43.19
31.90
23.37
17.19
12.44
8.58
5.78
4.65
5.69
8.73
12.91
17.10
20.47
22.85
24.69
26.52
28.56
30.50
31.59
31.11
28.74
24.81
20.20
16.06
13.41
12.73
13.89
16.09
18.33
19.68
19.67
18.27
15.81
12.68
9.11
5.22
0.96
-3.59
-8.26
-12.72
-16.59
-19.62
-21.76
-23.19
-24.25
-25.38
-26.88
-28.71
-30.49
-31.52
-31.03
-28.50
-23.89
-17.69
-10.81
-4.33
0.83
4.07
5.21
4.51
2.48
-0.19
-2.86
-5.03
-6.58
-7.64
-8.61
-9.98
-12.08
-15.06
-18.74
-22.77
-26.68
-30.13
-33.00
-35.37
-37.43
-39.28
-40.85
-41.84
-41.91
-40.91
-39.03
-36.86
-35.15
-34.60
-35.52
-37.78
-40.86
-44.01
-46.42
-47.33
-46.22
-42.82
-37.21
-29.82
-21.37
-12.64
-4.34
3.06
9.42
14.79
19.35
23.20
26.38
28.91
30.82
32.21
33.26
34.13
34.84
35.28
35.24
34.55
33.18
31.29
29.15
26.96
24.78
22.46
19.81
16.75
13.40
10.08
7.08
4.57
2.42
0.27
-2.31
-5.58
-9.54
-13.81
-17.73
-20.55
-21.59
-20.53
-17.42
-12.72
-7.08
-1.17
4.54
9.90
14.83
19.26
22.98
25.70
27.25
27.72
27.51
27.13
27.00
27.23
27.70
28.16
28.35
28.16
27.60
26.69
25.40
23.58
21.08
17.83
13.91
9.66
5.57
2.08
-0.56
-2.47
-4.08
-5.85
-8.12
-10.91
-14.04
-17.29
-20.55
-23.79
-26.83
-29.21
-30.18
-29.07
-25.64
-20.28
-13.88
-7.39
-1.42
3.93
8.90
13.70
18.22
22.00
24.48
25.35
24.75
23.25
21.65
20.62
20.53
21.28
22.49
23.62
24.20
23.98
22.97
21.41
19.60
17.85
16.27
14.80
13.28
11.47
9.30
6.79
4.07
1.17
-1.98
-5.64
-10.07
-15.32
-21.09
-26.66
-31.07
-33.42
-33.21
-30.47
-25.80
-20.09
-14.15
-8.61
-3.60
0.96
5.19
8.99
12.03
13.91
14.39
13.73
12.49
11.43
11.03
11.32
11.92
12.27
11.98
11.05
9.77
8.51
7.44
6.40
5.02
2.97
0.17
-3.10
-6.27
-8.81
-10.45
-11.44
-12.42
-14.17
-17.19
-21.54
-26.65
-31.63
-35.53
-37.66
-37.73
-35.83
-32.29
-27.48
-21.77
-15.46
-8.90
-2.49
3.35
8.26
11.98
14.38
15.57
15.72
15.14
14.11
12.87
11.58
10.30
9.01
7.77
6.63
5.64
4.75
3.76
2.31
0.12
-2.93
-6.57
-10.33
-13.67
-16.34
-18.45
-20.41
-22.62
-25.21
-28.08
-30.98
-33.79
-36.51
-39.13
-41.42
-42.84
-42.69
-40.46
-36.10
-30.04
-23.12
-16.09
-9.49
-3.55
1.70
6.28
10.11
13.03
14.93
15.75
15.65
15.01
14.34
14.17
14.82
16.29
18.17
19.91
20.93
20.95
20.02
18.41
16.42
14.20
11.75
8.98
5.92
2.77
-0.07
-2.19
-3.47
-4.17
-5.05
-6.96
-10.54
-15.80
-22.03
-27.96
-32.23
-33.94
-32.82
-29.28
-24.07
-17.94
-11.41
-4.79
1.67
7.72
13.01
17.29
20.43
22.53
23.89
24.87
25.71
26.51
27.20
27.61
27.60
27.12
26.21
25.03
23.77
22.60
21.61
20.78
19.96
19.00
17.75
16.09
14.04
11.63
8.99
6.24
3.54
0.97
-1.50
-4.02
-6.93
-10.54
-15.02
-20.10
-25.05
-28.81
-30.34
-29.07
-25.11
-19.22
-12.50
-5.91
0.07
5.37
10.23
14.76
18.75
21.86
23.74
24.40
24.23
23.88
23.96
24.68
25.85
26.89
27.24
26.63
25.21
23.55
22.21
21.50
21.18
20.58
18.97
15.95
11.77
7.15
2.99
-0.26
-2.69
-4.91
-7.59
-11.12
-15.39
-19.97
-24.36
-28.25
-31.51
-33.97
-35.35
-35.16
-32.93
-28.52
-22.26
-14.96
-7.57
-0.96
4.43
8.48
11.38
13.38
14.67
15.42
15.78
16.03
16.37
17.01
17.92
18.89
19.58
19.72
19.15
17.84
15.87
13.25
10.06
6.35
2.35
-1.63
-5.30
-8.48
-11.27
-13.94
-16.85
-20.28
-24.30
-28.79
-33.57
-38.41
-43.03
-47.01
-49.81
-50.81
-49.61
-46.13
-40.75
-34.10
-26.87
-19.61
-12.57
-5.95
0.10
5.29
9.27
11.77
12.82
12.81
12.39
12.23
12.65
13.58
14.56
15.06
14.78
13.72
12.20
10.58
9.07
7.57
5.79
3.42
0.36
-3.17
-6.74
-9.84
-12.17
-13.71
-14.77
-15.86
-17.50
-20.00
-23.30
-27.00
-30.42
-32.86
-33.67
-32.49
-29.22
-24.04
-17.42
-9.97
-2.32
4.97
11.56
17.26
21.97
25.62
28.18
29.72
30.41
30.49
30.24
29.77
29.11
28.17
26.93
25.54
24.29
23.47
23.22
23.38
23.52
23.15
21.87
19.54
16.29
12.41
8.22
3.98
-0.24
-4.42
-8.59
-12.73
-16.88
-21.09
-25.41
-29.79
-33.83
-36.83
-37.92
-36.45
-32.32
-26.11
-18.87
-11.67
-5.15
0.56
5.70
10.58
15.18
19.15
22.04
23.55
23.77
23.14
22.28
21.69
21.55
21.72
21.79
21.38
20.30
18.73
17.12
15.94
15.38
15.21
14.80
13.44
10.78
7.00
2.76
-1.11
-4.04
-5.96
-7.31
-8.74
-10.87
-13.98
-18.02
-22.59
-27.11
-30.85
-33.11
-33.26
-30.96
-26.28
-19.70
-12.09
-4.42
2.49
8.16
12.62
16.12
19.04
21.52
23.55
24.93
25.59
25.59
25.13
24.45
23.65
22.73
21.65
20.45
19.30
18.42
17.91
17.63
17.23
16.31
14.62
12.13
9.09
5.83
2.66
-0.27
-2.97
-5.61
-8.47
-11.78
-15.74
-20.29
-25.07
-29.38
-32.29
-32.91
-30.65
-25.52
-18.11
-9.41
-0.52
7.72
14.86
20.91
26.06
30.54
34.40
37.39
39.00
38.60
35.61
29.83
21.52
11.37
0.40
-10.43
-20.34
-28.96
-36.20
-42.12
-46.75
-50.09
-52.14
-52.95
-52.72
-51.63
-49.85
-47.48
-44.62
-41.50
-38.52
-36.18
-34.89
-34.84
-35.93
-37.80
-39.97
-41.85
-42.83
-42.24
-39.50
-34.32
-26.85
-17.80
-8.19
0.97
9.02
15.77
21.38
26.06
29.86
32.61
34.10
34.38
33.80
32.97
32.47
32.62
33.29
34.02
34.20
33.41
31.55
28.87
25.77
22.65
19.77
17.11
14.54
11.87
9.05
6.14
3.32
0.74
-1.58
-3.77
-6.09
-8.81
-12.06
-15.79
-19.75
-23.51
-26.55
-28.32
-28.43
-26.69
-23.13
-18.04
-11.83
-4.97
2.12
9.07
15.58
21.34
26.09
29.70
32.19
33.80
34.91
35.90
37.03
38.41
39.98
41.57
43.02
44.21
45.11
45.74
46.11
46.18
45.82
44.88
43.22
40.76
37.46
33.34
28.37
22.52
15.74
8.06
-0.45
-9.65
-19.32
-29.15
-38.80
-47.79
-55.53
-61.45
-65.01
-65.89
-64.05
-59.75
-53.50
-45.97
-37.84
-29.67
-21.76
-14.14
-6.74
0.45
7.25
13.27
18.06
21.31
23.04
23.53
23.24
22.54
21.55
20.20
18.37
16.07
13.54
11.20
9.48
8.59
8.42
8.54
8.36
7.29
4.99
1.36
-3.38
-8.88
-14.69
-20.38
-25.57
-30.03
-33.60
-36.34
-38.44
-40.20
-41.88
-43.48
-44.72
-45.03
-43.83
-40.73
-35.81
-29.50
-22.52
-15.51
-8.88
-2.73
2.96
8.21
12.94
16.91
19.95
22.00
23.19
23.76
24.00
24.10
24.13
24.08
23.88
23.46
22.78
21.77
20.40
18.69
16.64
14.32
11.77
9.02
6.03
2.84
-0.50
-3.89
-7.21
-10.34
-13.26
-16.11
-19.15
-22.67
-26.82
-31.47
-36.15
-40.10
-42.50
-42.71
-40.46
-35.92
-29.61
-22.17
-14.27
-6.45
0.80
7.01
11.79
14.85
16.21
16.24
15.69
15.44
16.38
19.04
23.51
29.37
35.88
42.19
47.52
51.34
53.30
53.30
51.31
47.36
41.52
34.05
25.34
15.99
6.56
-2.49
-10.98
-18.98
-26.70
-34.27
-41.70
-48.81
-55.38
-61.15
-65.81
-68.98
-70.14
-68.79
-64.56
-57.56
-48.44
-38.32
-28.47
-19.95
-13.36
-8.77
-5.99
-4.75
-4.95
-6.58
-9.71
-14.19
-19.68
-25.71
-31.84
-37.79
-43.45
-48.60
-52.77
-55.11
-54.56
-50.20
-41.61
-29.11
-13.68
3.30
20.39
36.37
50.37
61.81
70.28
75.42
76.98
74.81
69.02
60.08
48.79
36.27
23.83
12.77
4.13
-1.35
-3.38
-2.13
1.95
8.14
15.67
23.79
31.82
39.12
45.13
49.40
51.60
51.64
49.71
46.23
41.76
36.91
32.20
27.96
24.35
21.42
19.11
17.35
16.02
14.98
13.99
12.84
11.32
9.29
6.69
3.66
0.38
-2.90
-5.96
-8.64
-10.92
-12.97
-15.03
-17.50
-20.71
-24.83
-29.62
-34.44
-38.36
-40.37
-39.74
-36.30
-30.49
-23.19
-15.38
-7.82
-0.88
5.34
10.91
15.67
19.40
21.84
22.93
22.97
22.53
22.21
22.34
22.86
23.38
23.46
22.81
21.48
19.81
18.14
16.67
15.33
13.89
12.06
9.75
7.03
4.04
0.89
-2.35
-5.71
-9.19
-12.64
-15.92
-18.91
-21.76
-24.77
-28.20
-32.06
-35.86
-38.64
-39.27
-36.94
-31.54
-23.71
-14.64
-5.67
2.21
8.53
13.37
17.13
20.27
23.09
25.72
28.18
30.45
32.56
34.58
36.53
38.34
39.90
41.03
41.61
41.63
41.16
40.30
38.95
36.67
32.73
26.47
17.53
6.10
-7.03
-20.88
-34.54
-47.41
-59.24
-69.95
-79.43
-87.54
-94.09
-98.97
-102.02
-103.07
-101.80
-97.91
-91.36
-82.61
-72.55
-62.26
-52.51
-43.60
-35.40
-27.64
-20.32
-13.82
-8.74
-5.49
-3.95
-3.40
-2.89
-1.64
0.53
3.19
5.63
7.29
8.02
8.13
8.07
8.07
8.05
7.65
6.61
4.87
2.75
0.72
-0.83
-1.82
-2.52
-3.40
-4.89
-7.23
-10.35
-13.84
-17.06
-19.22
-19.55
-17.53
-13.09
-6.68
0.82
8.46
15.49
21.61
26.86
31.40
35.23
38.14
39.84
40.27
39.68
38.64
37.72
37.22
37.09
37.04
36.76
36.18
35.41
34.66
34.04
33.47
32.67
31.33
29.25
26.41
23.03
19.47
16.14
13.33
11.07
9.13
7.03
4.25
0.36
-4.72
-10.64
-16.54
-21.28
-23.70
-23.00
-19.04
-12.36
-4.01
4.80
13.08
20.26
26.23
31.13
35.24
38.71
41.64
44.04
45.83
47.00
47.56
47.58
47.20
46.66
46.12
45.61
44.98
43.91
42.11
39.42
35.97
32.03
28.00
24.24
21.05
18.71
17.40
17.21
17.91
18.94
19.42
18.44
15.37
10.06
2.85
-5.62
-14.52
-23.00
-30.21
-35.34
-37.75
-37.15
-33.69
-27.95
-20.78
-12.98
-5.27
1.81
7.76
12.07
14.39
14.69
13.39
11.27
9.15
7.54
6.48
5.64
4.66
3.39
1.92
0.54
-0.67
-1.91
-3.66
-6.35
-10.07
-14.45
-18.83
-22.63
-25.64
-28.13
-30.70
-33.98
-38.35
-43.86
-50.28
-57.16
-63.92
-69.86
-74.20
-76.14
-75.06
-70.70
-63.29
-53.51
-42.25
-30.49
-19.06
-8.62
0.35
7.56
12.90
16.43
18.38
19.12
19.07
18.65
18.26
18.17
18.50
19.13
19.69
19.78
19.01
17.22
14.59
11.48
8.32
5.44
2.89
0.54
-1.90
-4.62
-7.67
-10.93
-14.21
-17.47
-20.83
-24.60
-28.94
-33.62
-37.90
-40.67
-40.86
-37.89
-32.00
-24.20
-15.83
-8.04
-1.37
4.35
9.70
15.16
20.78
26.04
30.13
32.47
33.05
32.45
31.56
31.11
31.25
31.65
31.71
31.08
29.82
28.36
27.14
26.23
25.30
23.77
21.20
17.57
13.30
9.06
5.39
2.49
0.09
-2.41
-5.70
-10.23
-15.94
-22.20
-27.91
-31.89
-33.25
-31.67
-27.48
-21.43
-14.40
-7.14
-0.15
6.26
11.87
16.43
19.75
21.72
22.48
22.34
21.79
21.19
20.78
20.54
20.28
19.81
19.06
18.18
17.42
16.95
16.64
16.07
14.72
12.28
8.85
4.91
1.11
-2.19
-4.99
-7.72
-10.86
-14.71
-19.27
-24.24
-29.23
-33.89
-37.93
-40.99
-42.59
-42.17
-39.32
-34.05
-26.81
-18.48
-10.07
-2.43
3.96
9.03
13.01
16.20
18.81
20.96
22.66
23.95
24.94
25.80
26.59
27.23
27.59
27.48
26.91
25.98
24.91
23.76
22.36
20.29
17.05
12.29
5.92
-1.77
-10.20
-18.67
-26.58
-33.54
-39.48
-44.69
-49.67
-54.80
-60.09
-64.95
-68.29
-68.92
-66.02
-59.53
-50.28
-39.70
-29.31
-20.21
-12.79
-6.82
-1.75
2.83
6.95
10.33
12.64
13.82
14.26
14.56
15.30
16.65
18.29
19.63
20.16
19.75
18.65
17.36
16.21
15.20
14.03
12.29
9.71
6.36
2.64
-0.95
-4.00
-6.34
-8.12
-9.67
-11.46
-13.86
-17.03
-20.83
-24.84
-28.41
-30.83
-31.48
-30.04
-26.50
-21.18
-14.60
-7.41
-0.18
6.57
12.53
17.48
21.35
24.17
26.11
27.44
28.45
29.41
30.44
31.51
32.46
33.08
33.20
32.76
31.79
30.39
28.64
26.66
24.51
22.33
20.22
18.24
16.33
14.40
12.32
10.06
7.67
5.19
2.59
-0.30
-3.73
-7.91
-12.77
-17.96
-22.75
-26.35
-28.11
-27.70
-25.23
-21.08
-15.82
-9.90
-3.68
2.63
8.86
14.78
20.11
24.47
27.69
29.72
30.80
31.30
31.58
31.89
32.22
32.44
32.37
31.86
30.94
29.71
28.32
26.86
25.28
23.36
20.78
17.26
12.69
7.30
1.63
-3.69
-8.17
-11.66
-14.48
-17.25
-20.70
-25.34
-31.29
-38.17
-45.21
-51.40
-55.75
-57.50
-56.33
-52.39
-46.31
-38.95
-31.23
-23.84
-17.22
-11.53
-6.74
-2.69
0.83
4.00
6.96
9.75
12.29
14.44
16.06
17.08
17.51
17.44
16.95
16.08
14.84
13.23
11.32
9.19
6.96
4.66
2.26
-0.32
-3.15
-6.18
-9.27
-12.28
-15.18
-18.17
-21.57
-25.81
-31.12
-37.41
-44.13
-50.35
-54.98
-57.01
-55.87
-51.51
-44.49
-35.70
-26.11
-16.52
-7.51
0.56
7.46
12.93
16.79
19.01
19.86
19.86
19.58
19.51
19.78
20.32
20.89
21.39
21.87
22.47
23.26
24.09
24.61
24.43
23.25
21.07
18.11
14.74
11.31
8.07
5.23
2.93
1.27
0.18
-0.65
-1.72
-3.61
-6.75
-11.20
-16.63
-22.31
-27.36
-31.01
-32.74
-32.37
-30.04
-26.05
-20.83
-14.86
-8.57
-2.35
3.47
8.63
12.99
16.47
19.12
21.04
22.41
23.45
24.26
24.88
25.14
24.86
23.90
22.36
20.57
18.90
17.55
16.41
15.14
13.41
11.07
8.28
5.36
2.64
0.25
-1.79
-3.52
-4.96
-6.17
-7.38
-9.01
-11.59
-15.50
-20.69
-26.53
-31.98
-35.91
-37.44
-36.19
-32.32
-26.42
-19.23
-11.44
-3.59
3.94
10.88
16.96
21.86
25.30
27.14
27.49
26.77
25.61
24.64
24.31
24.71
25.53
26.23
26.28
25.43
23.79
21.78
19.86
18.30
17.05
15.74
13.97
11.49
8.36
4.88
1.45
-1.72
-4.70
-7.84
-11.58
-16.31
-22.05
-28.48
-34.91
-40.38
-43.95
-44.92
-42.99
-38.42
-31.81
-23.99
-15.82
-8.03
-1.20
4.27
8.15
10.52
11.68
12.14
12.45
13.00
13.88
14.94
15.91
16.59
16.95
17.05
17.01
16.86
16.51
15.85
14.72
13.00
10.61
7.48
3.63
-0.81
-5.59
-10.37
-14.83
-18.70
-21.86
-24.36
-26.50
-28.75
-31.71
-35.77
-40.90
-46.41
-51.01
-53.27
-52.11
-47.33
-39.64
-30.43
-21.15
-12.78
-5.68
0.35
5.64
10.38
14.44
17.54
19.44
20.16
20.04
19.62
19.38
19.49
19.79
19.89
19.46
18.43
17.07
15.80
14.93
14.37
13.64
12.15
9.52
5.88
1.83
-1.78
-4.38
-5.90
-6.85
-8.10
-10.46
-14.37
-19.73
-25.95
-32.16
-37.40
-40.91
-42.19
-41.07
-37.72
-32.56
-26.13
-18.96
-11.48
-4.00
3.21
9.85
15.62
20.22
23.53
25.68
27.01
27.98
29.04
30.47
32.32
34.41
36.40
37.89
38.63
38.56
37.83
36.73
35.65
34.83
34.36
34.15
34.03
33.86
33.56
33.10
32.51
31.77
30.82
29.51
27.65
25.14
22.03
18.61
15.48
13.41
13.23
15.58
20.78
28.76
39.07
51.08
64.02
77.00
88.93
98.50
104.29
105.12
100.40
90.41
76.37
60.03
43.33
27.81
14.36
3.12
-6.47
-15.26
-24.17
-33.79
-44.36
-55.78
-67.91
-80.76
-94.66
-109.97
-126.78
-144.50
-161.82
-177.08
-188.92
-196.97
-202.05
-205.91
-210.56
-217.39
-226.80
-237.95
-249.23
-258.78
-265.24
-268.18
-268.38
-267.64
-268.06
-270.99
-275.93
-280.17
-279.30
-268.76
-245.60
-209.68
-163.64
-111.74
-58.10
-5.38
45.48
94.86
143.70
192.93
243.25
294.90
347.21
398.14
444.10
480.65
503.73
510.98
502.42
480.26
447.89
408.90
366.31
322.35
278.60
236.09
195.38
156.60
119.60
84.28
51.03
20.79
-5.21
-25.97
-41.26
-51.85
-59.33
-65.51
-71.65
-77.94
-83.46
-86.67
-86.22
-81.67
-73.69
-63.79
-53.75
-45.05
-38.65
-35.04
-34.36
-36.32
-40.25
-45.08
-49.61
-52.85
-54.41
-54.60
-54.21
-54.13
-54.92
-56.77
-59.47
-62.57
-65.60
-68.00
-69.23
-68.86
-66.72
-63.18
-59.16
-55.84
-54.24
-54.71
-56.62
-58.64
-59.17
-56.99
-51.70
-43.65
-33.73
-22.86
-11.72
-0.67
10.09
20.32
29.64
37.58
43.71
47.79
49.90
50.42
49.92
49.00
48.07
47.29
46.66
46.19
45.98
46.31
47.44
49.29
51.38
52.73
52.26
49.07
42.87
33.95
23.08
11.17
-0.94
-12.62
-23.47
-33.09
-41.16
-47.24
-50.98
-52.12
-50.65
-46.77
-40.89
-33.59
-25.46
-17.08
-8.91
-1.24
5.81
12.19
17.76
22.29
25.37
26.68
26.21
24.34
21.77
19.31
17.55
16.73
16.79
17.43
18.26
18.81
18.56
17.06
14.07
9.81
4.87
0.07
-3.90
-6.80
-8.96
-11.04
-13.69
-17.24
-21.60
-26.25
-30.49
-33.53
-34.68
-33.36
-29.25
-22.39
-13.27
-2.82
7.74
17.28
24.97
30.54
34.15
36.32
37.52
38.05
37.97
37.14
35.50
33.19
30.53
27.94
25.61
23.41
20.89
17.52
13.01
7.45
1.42
-4.38
-9.32
-13.18
-16.15
-18.78
-21.63
-25.13
-29.50
-34.76
-40.87
-47.70
-54.93
-61.94
-67.83
-71.55
-72.24
-69.57
-63.90
-56.17
-47.59
-39.21
-31.57
-24.72
-18.39
-12.31
-6.55
-1.51
2.23
4.18
4.25
2.90
0.88
-1.02
-2.30
-2.92
-3.03
-2.76
-1.91
-0.00
3.50
8.85
15.85
23.94
32.44
40.70
48.02
53.31
55.08
51.74
42.29
27.16
8.26
-11.47
-29.13
-42.86
-52.32
-58.31
-61.96
-63.86
-63.73
-60.83
-54.58
-45.23
-33.88
-22.11
-11.26
-1.87
6.30
14.04
21.96
30.15
38.16
45.36
51.47
56.86
62.34
68.57
75.55
82.26
87.07
88.43
85.74
79.61
71.65
63.55
56.25
49.56
42.31
33.20
21.63
8.15
-5.75
-18.30
-28.32
-35.67
-41.17
-46.12
-51.63
-58.17
-65.44
-72.52
-78.22
-81.47
-81.59
-78.30
-71.81
-62.62
-51.41
-38.97
-26.08
-13.52
-2.00
7.84
15.63
21.28
25.14
27.84
30.09
32.47
35.17
38.06
40.78
42.98
44.37
44.90
44.64
43.77
42.48
40.92
39.20
37.29
35.05
32.21
28.53
23.96
18.70
13.34
8.58
4.97
2.73
1.52
0.63
-0.86
-3.62
-7.92
-13.33
-18.91
-23.29
-25.09
-23.35
-17.85
-9.32
0.89
11.14
20.18
27.51
33.45
38.79
44.22
50.07
56.07
61.70
66.48
70.29
73.29
75.87
78.42
81.20
84.42
88.17
92.50
97.35
102.62
108.12
113.66
119.01
123.80
127.57
129.77
130.19
129.26
128.09
128.10
130.18
134.01
137.83
138.91
134.39
122.05
100.77
70.43
31.89
-13.07
-61.56
-109.49
-152.20
-185.50
-207.21
-217.84
-220.35
-218.76
-216.39
-214.76
-213.64
-212.02
-209.33
-205.99
-202.98
-200.95
-199.41
-196.82
-191.49
-182.72
-171.47
-159.93
-150.42
-144.08
-140.37
-137.48
-133.36
-126.91
-118.38
-109.13
-100.74
-94.17
-89.35
-85.41
-81.25
-76.23
-70.53
-65.04
-60.97
-59.27
-60.22
-63.20
-66.85
-69.27
-68.57
-63.35
-53.14
-38.57
-21.10
-2.60
15.22
31.24
45.00
56.52
65.99
73.47
78.96
82.41
84.07
84.40
83.99
83.30
82.44
81.30
79.69
77.59
75.22
72.89
70.79
68.85
66.75
64.06
60.51
56.08
50.91
45.23
39.23
33.04
26.81
20.66
14.74
9.21
4.04
-0.91
-5.97
-11.45
-17.56
-24.17
-30.70
-36.19
-39.52
-39.81
-36.77
-30.79
-22.80
-13.91
-5.03
3.40
11.31
18.75
25.60
31.47
35.85
38.45
39.46
39.60
39.72
40.45
41.83
43.35
44.26
44.08
42.86
41.12
39.58
38.61
38.04
37.24
35.46
32.23
27.63
22.18
16.59
11.43
6.88
2.81
-1.04
-4.90
-8.91
-13.20
-17.91
-23.22
-29.15
-35.30
-40.84
-44.55
-45.29
-42.34
-35.72
-26.22
-15.09
-3.72
6.85
16.02
23.71
30.08
35.29
39.29
41.88
42.89
42.42
40.92
39.10
37.62
36.76
36.30
35.65
34.19
31.63
28.19
24.49
21.22
18.77
17.03
15.47
13.44
10.49
6.65
2.40
-1.61
-4.78
-7.00
-8.50
-9.96
-12.05
-15.30
-19.86
-25.39
-31.16
-36.25
-39.83
-41.33
-40.55
-37.61
-32.78
-26.38
-18.70
-10.13
-1.14
7.67
15.74
22.68
28.33
32.82
36.32
38.94
40.66
41.41
41.20
40.15
38.50
36.49
34.36
32.21
30.09
28.00
25.89
23.62
21.01
17.84
13.97
9.47
4.62
-0.15
-4.44
-8.01
-10.88
-13.29
-15.67
-18.52
-22.35
-27.53
-34.00
-41.17
-47.92
-52.86
-54.80
-53.13
-48.05
-40.43
-31.41
-21.99
-12.84
-4.25
3.62
10.61
16.48
20.96
23.97
25.66
26.37
26.59
26.77
27.15
27.70
28.18
28.25
27.69
26.57
25.14
23.70
22.33
20.79
18.68
15.65
11.66
7.03
2.31
-1.97
-5.57
-8.53
-11.12
-13.72
-16.75
-20.60
-25.54
-31.57
-38.26
-44.71
-49.70
-52.08
-51.16
-46.97
-40.19
-31.85
-22.95
-14.23
-6.01
1.64
8.70
15.06
20.45
24.66
27.58
29.37
30.38
30.99
31.46
31.83
32.02
31.93
31.62
31.18
30.77
30.37
29.86
28.99
27.51
25.29
22.29
18.60
14.36
9.79
5.23
0.99
-2.66
-5.72
-8.39
-11.12
-14.38
-18.52
-23.69
-29.67
-35.94
-41.68
-45.92
-47.74
-46.57
-42.30
-35.46
-26.98
-17.87
-9.04
-0.97
6.19
12.47
17.90
22.39
25.80
28.05
29.28
29.80
30.02
30.31
30.79
31.45
32.10
32.56
32.64
32.24
31.30
29.82
27.84
25.35
22.35
18.80
14.72
10.22
5.57
1.12
-2.81
-6.09
-8.80
-11.25
-13.80
-16.77
-20.34
-24.57
-29.40
-34.58
-39.61
-43.68
-45.82
-45.18
-41.34
-34.53
-25.59
-15.66
-5.92
2.80
10.07
15.86
20.29
23.58
25.92
27.55
28.65
29.43
30.05
30.58
31.01
31.24
31.12
30.53
29.49
28.18
26.86
25.74
24.82
23.78
22.19
19.77
16.51
12.79
9.09
5.75
2.73
-0.22
-3.40
-6.94
-10.77
-14.79
-19.06
-23.81
-29.29
-35.39
-41.42
-46.21
-48.44
-47.21
-42.51
-35.23
-26.82
-18.69
-11.70
-5.96
-1.04
3.64
8.33
12.80
16.54
19.08
20.34
20.66
20.62
20.69
21.04
21.51
21.69
21.33
20.36
19.00
17.59
16.43
15.54
14.66
13.42
11.48
8.81
5.67
2.51
-0.29
-2.64
-4.68
-6.75
-9.06
-11.72
-14.73
-18.18
-22.22
-26.89
-31.91
-36.45
-39.32
-39.38
-36.04
-29.43
-20.42
-10.21
0.03
9.37
17.11
22.69
25.67
25.79
23.29
18.88
13.69
8.85
5.10
2.66
1.26
0.48
0.06
0.02
0.56
1.79
3.52
5.24
6.37
6.51
5.62
3.92
1.73
-0.80
-3.75
-7.20
-11.19
-15.43
-19.48
-22.86
-25.34
-26.97
-28.11
-29.32
-31.18
-34.16
-38.31
-43.24
-48.01
-51.42
-52.38
-50.30
-45.34
-38.28
-30.20
-22.04
-14.34
-7.25
-0.75
5.03
9.84
13.35
15.44
16.41
16.89
17.57
18.82
20.60
22.41
23.70
24.08
23.66
22.91
22.39
22.46
23.05
23.74
24.05
23.67
22.63
21.13
19.39
17.46
15.21
12.49
9.25
5.70
2.12
-1.20
-4.20
-6.97
-9.78
-12.87
-16.42
-20.43
-24.75
-28.97
-32.44
-34.44
-34.30
-31.65
-26.60
-19.67
-11.63
-3.18
5.14
13.06
20.40
27.05
32.78
37.40
40.84
43.19
44.76
45.77
46.24
45.95
44.54
41.85
38.07
33.79
29.73
26.49
24.19
22.55
21.10
19.43
17.29
14.62
11.42
7.63
3.25
-1.62
-6.73
-11.75
-16.39
-20.47
-24.00
-27.15
-30.18
-33.42
-37.15
-41.48
-46.20
-50.68
-54.00
-55.28
-54.00
-50.31
-44.92
-38.75
-32.59
-26.82
-21.49
-16.46
-11.76
-7.65
-4.57
-2.88
-2.75
-4.04
-6.37
-9.27
-12.23
-14.84
-16.77
-17.81
-17.98
-17.38
-16.26
-14.82
-13.17
-11.31
-9.10
-6.35
-2.95
0.95
4.93
8.31
10.48
11.18
10.67
9.68
9.18
9.89
11.99
14.98
17.84
19.45
18.93
15.97
10.84
4.27
-2.75
-9.14
-13.89
-16.31
-16.26
-14.29
-11.46
-9.00
-7.79
-7.90
-8.57
-8.64
-7.23
-4.19
-0.19
3.85
7.36
10.39
13.50
17.08
21.00
24.52
26.76
27.33
26.59
25.50
24.96
25.30
25.98
25.86
23.81
19.23
12.37
4.12
-4.31
-11.83
-17.81
-22.17
-25.24
-27.66
-30.07
-32.94
-36.37
-40.10
-43.44
-45.55
-45.67
-43.34
-38.58
-31.75
-23.32
-13.68
-2.99
8.69
21.22
34.13
46.47
56.76
63.23
64.25
58.89
47.40
31.44
13.85
-2.11
-13.82
-20.13
-21.77
-20.82
-19.62
-19.67
-20.91
-22.04
-21.47
-18.46
-13.72
-9.03
-6.20
-6.01
-7.68
-9.37
-9.34
-7.09
-3.75
-1.42
-2.10
-6.59
-14.15
-22.98
-30.99
-36.72
-39.56
-39.64
-37.45
-33.46
-28.06
-21.57
-14.43
-7.19
-0.54
4.89
8.70
10.84
11.62
11.67
11.66
12.06
12.87
13.72
14.05
13.55
12.32
10.92
10.09
10.36
11.81
14.02
16.31
17.99
18.59
17.91
16.04
13.21
9.80
6.32
3.24
0.91
-0.67
-1.88
-3.36
-5.75
-9.47
-14.59
-20.73
-27.28
-33.38
-38.10
-40.54
-40.03
-36.33
-29.71
-20.91
-10.90
-0.58
9.43
18.84
27.53
35.38
42.17
47.69
51.83
54.70
56.58
57.78
58.55
59.02
59.26
59.37
59.44
59.50
59.54
59.54
59.53
59.57
59.63
59.37
58.03
54.70
48.72
40.14
29.90
19.53
10.54
3.65
-1.35
-5.49
-9.95
-15.54
-22.44
-30.30
-38.50
-46.34
-53.11
-58.01
-60.25
-59.26
-54.95
-47.83
-38.92
-29.52
-20.77
-13.44
-7.84
-3.94
-1.42
0.07
0.85
1.12
0.90
0.15
-1.16
-2.97
-5.10
-7.38
-9.75
-12.28
-15.17
-18.59
-22.63
-27.15
-31.80
-36.05
-39.37
-41.43
-42.24
-42.07
-41.32
-40.25
-38.82
-36.91
-34.41
-31.61
-29.09
-27.54
-27.37
-28.44
-30.04
-31.11
-30.64
-27.94
-22.82
-15.54
-6.57
3.56
14.39
25.57
36.81
47.69
57.63
65.82
71.46
74.03
73.52
70.43
65.72
60.49
55.60
51.53
48.28
45.47
42.67
39.56
36.19
32.82
29.78
27.20
24.87
22.33
19.12
15.08
10.47
5.86
1.82
-1.42
-4.12
-6.80
-10.06
-14.23
-19.30
-25.14
-31.60
-38.48
-45.42
-51.52
-55.51
-56.08
-52.54
-45.28
-35.73
-25.71
-16.75
-9.52
-3.81
0.96
5.28
9.12
12.17
14.13
15.06
15.35
15.48
15.64
15.55
14.72
12.74
9.71
6.24
3.24
1.35
0.60
0.34
-0.46
-2.67
-6.53
-11.63
-17.06
-21.93
-25.67
-28.24
-29.98
-31.49
-33.22
-35.47
-38.32
-41.79
-45.88
-50.60
-55.74
-60.77
-64.80
-66.65
-65.25
-59.96
-50.88
-38.92
-25.54
-12.38
-0.77
8.63
15.81
21.39
26.21
31.03
36.30
42.22
48.77
55.74
62.49
67.77
69.76
66.74
57.92
44.28
28.66
14.73
5.38
1.25
0.44
-0.42
-4.25
-11.77
-21.07
-28.69
-31.71
-29.34
-23.35
-16.99
-13.12
-12.86
-15.35
-18.65
-21.16
-22.53
-23.45
-24.83
-26.77
-28.23
-27.40
-22.70
-13.72
-1.45
12.00
24.36
34.00
40.38
44.00
45.92
47.10
48.06
48.76
48.90
48.24
46.83
44.97
42.99
41.04
38.98
36.49
33.25
29.19
24.51
19.66
15.11
11.14
7.72
4.55
1.21
-2.60
-6.90
-11.42
-15.81
-19.88
-23.70
-27.61
-32.03
-37.23
-43.17
-49.41
-55.17
-59.48
-61.35
-60.15
-55.76
-48.65
-39.69
-29.89
-20.00
-10.43
-1.41
6.81
13.71
18.57
20.77
20.19
17.38
13.52
10.09
8.43
9.34
12.83
18.13
23.96
29.05
32.54
34.25
34.46
33.52
31.43
27.66
21.47
12.46
1.25
-10.29
-19.60
-24.46
-24.20
-20.31
-15.90
-14.32
-17.55
-25.32
-35.36
-44.61
-50.68
-52.69
-51.18
-47.20
-41.41
-33.68
-23.62
-11.30
2.19
14.97
25.16
31.71
34.92
36.09
36.85
38.23
40.32
42.32
43.21
42.39
40.08
37.26
35.07
34.32
35.02
36.49
37.53
36.83
33.28
26.16
15.44
1.86
-12.95
-26.78
-37.28
-42.76
-42.65
-37.68
-29.52
-20.13
-11.20
-3.80
1.48
4.29
4.46
2.05
-2.29
-7.24
-10.94
-11.60
-8.23
-1.07
8.47
18.39
26.87
32.87
36.31
37.80
38.17
38.06
37.75
37.15
36.06
34.30
31.85
28.86
25.62
22.46
19.58
16.99
14.38
11.46
7.96
4.00
-0.03
-3.71
-6.84
-9.68
-12.87
-17.11
-22.61
-28.93
-35.12
-40.22
-43.82
-46.30
-48.62
-51.81
-56.35
-61.96
-67.85
-73.12
-77.21
-80.04
-81.81
-82.65
-82.29
-80.14
-75.44
-67.72
-56.92
-43.48
-28.22
-12.11
3.81
18.64
31.64
42.35
50.59
56.46
60.21
62.18
62.69
62.07
60.62
58.61
56.21
53.51
50.47
47.05
43.26
39.29
35.42
31.87
28.68
25.61
22.19
17.94
12.58
6.25
-0.55
-7.14
-12.95
-17.84
-22.13
-26.46
-31.47
-37.42
-44.00
-50.31
-55.14
-57.35
-56.24
-51.78
-44.49
-35.31
-25.29
-15.38
-6.23
1.75
8.41
13.77
17.87
20.81
22.72
23.79
24.28
24.51
24.78
25.28
26.01
26.77
27.28
27.29
26.69
25.65
24.46
23.40
22.56
21.84
20.95
19.62
17.71
15.20
12.15
8.58
4.53
0.14
-4.26
-8.18
-11.16
-13.09
-14.39
-15.84
-18.37
-22.43
-27.75
-33.31
-37.65
-39.40
-37.74
-32.69
-25.03
-15.96
-6.68
1.92
9.40
15.71
20.99
25.22
28.29
30.03
30.43
29.79
28.70
27.82
27.56
27.95
28.56
28.82
28.28
26.82
24.70
22.38
20.33
18.73
17.51
16.42
15.18
13.59
11.57
9.10
6.16
2.74
-1.07
-5.09
-9.06
-12.74
-16.04
-19.12
-22.34
-26.10
-30.61
-35.60
-40.34
-43.77
-44.84
-42.93
-38.07
-30.89
-22.40
-13.66
-5.44
1.92
8.38
13.99
18.76
22.51
25.08
26.47
26.95
27.10
27.52
28.67
30.53
32.64
34.21
34.53
33.32
30.92
28.24
26.41
26.35
28.32
31.96
36.36
40.55
43.74
45.54
45.84
44.66
42.04
38.10
33.11
27.53
21.79
15.91
9.31
0.96
-10.05
-23.78
-39.07
-53.68
-65.06
-71.34
-72.11
-68.48
-62.54
-56.47
-51.81
-49.16
-48.40
-49.03
-50.48
-52.01
-52.65
-51.13
-46.05
-36.50
-22.56
-5.64
11.76
26.73
36.95
41.50
41.12
37.73
33.67
30.72
29.58
29.93
30.83
31.29
30.60
28.43
24.67
19.33
12.50
4.35
-4.73
-14.31
-24.02
-33.78
-43.88
-54.75
-66.49
-78.45
-88.99
-95.75
-96.45
-89.86
-76.45
-58.38
-38.88
-21.07
-6.89
3.20
10.04
14.98
19.22
23.54
28.27
33.51
39.14
44.73
49.55
52.79
53.79
52.49
49.34
45.12
40.49
35.74
30.72
25.12
18.71
11.48
3.53
-4.99
-13.99
-23.09
-31.50
-37.94
-41.13
-40.35
-36.02
-29.66
-23.43
-19.37
-18.73
-21.64
-27.24
-33.93
-39.87
-43.26
-42.68
-37.34
-27.35
-13.82
1.32
15.80
27.66
35.73
39.84
40.51
38.59
34.79
29.59
23.29
16.18
8.69
1.33
-5.31
-10.73
-14.34
-15.45
-13.37
-7.69
1.23
11.99
22.41
30.20
33.89
33.29
29.39
23.64
17.20
10.52
3.70
-3.07
-9.01
-13.00
-14.27
-13.07
-10.87
-9.85
-11.83
-17.31
-25.23
-33.37
-39.43
-41.89
-40.52
-36.20
-30.28
-24.03
-18.23
-13.12
-8.58
-4.36
-0.33
3.52
6.97
9.78
11.68
12.56
12.53
11.95
11.22
10.64
10.32
10.22
10.42
11.16
12.84
15.66
19.44
23.51
27.01
29.22
29.79
28.73
26.20
22.27
16.97
10.39
2.83
-5.21
-13.32
-21.39
-29.55
-37.81
-45.63
-51.77
-54.72
-53.28
-47.23
-37.44
-25.50
-13.19
-2.00
7.00
13.14
16.03
15.64
12.44
7.44
2.07
-2.13
-4.00
-3.08
0.32
5.33
10.83
15.87
19.79
22.37
23.67
23.96
23.64
23.25
23.33
24.29
26.17
28.49
30.38
30.94
29.76
27.31
24.93
24.47
27.56
35.16
47.11
61.91
76.85
88.50
93.51
89.47
75.63
52.97
23.97
-8.19
-40.39
-70.12
-95.70
-116.08
-130.40
-137.77
-137.25
-128.24
-111.01
-87.17
-59.68
-32.25
-8.49
9.14
19.96
24.93
26.08
25.68
25.50
26.60
29.23
33.07
37.52
41.98
46.16
50.14
54.12
57.87
60.16
58.71
50.99
35.33
12.11
-16.05
-45.11
-71.16
-91.73
-106.13
-114.93
-118.64
-116.88
-108.52
-92.64
-69.82
-42.74
-15.65
7.19
23.05
31.73
35.35
36.97
39.20
43.10
48.05
52.58
55.42
56.22
55.66
54.80
54.31
54.06
53.30
51.25
47.72
43.27
38.80
35.03
32.02
29.21
25.92
21.69
16.65
11.33
6.34
2.00
-1.80
-5.50
-9.63
-14.53
-20.26
-26.50
-32.63
-37.73
-40.89
-41.40
-39.15
-34.63
-28.76
-22.51
-16.45
-10.65
-4.76
1.57
8.36
15.22
21.46
26.46
29.87
31.75
32.53
32.64
32.41
31.90
30.98
29.43
27.22
24.42
21.26
18.01
14.76
11.45
7.81
3.59
-1.28
-6.41
-10.98
-13.97
-14.56
-12.77
-9.58
-6.78
-6.22
-8.90
-14.37
-20.72
-25.27
-25.45
-19.65
-7.51
9.92
30.26
49.94
64.50
69.42
61.46
40.15
8.59
-26.98
-59.11
-81.70
-92.01
-91.24
-83.24
-72.33
-61.29
-50.67
-39.51
-26.88
-13.07
0.31
11.26
18.66
22.94
25.75
28.74
32.39
35.74
36.97
34.72
28.99
21.40
14.33
9.77
8.37
9.21
10.41
10.02
7.06
1.87
-3.90
-7.88
-7.81
-2.24
8.70
23.10
37.48
47.66
50.15
43.44
28.70
9.40
-9.91
-25.32
-34.72
-38.17
-37.19
-33.50
-28.25
-21.77
-14.12
-5.70
2.33
8.49
11.70
11.88
10.14
8.11
7.12
7.45
8.27
8.13
5.90
1.33
-4.85
-11.45
-17.57
-23.09
-28.58
-34.81
-42.23
-50.78
-59.96
-69.29
-78.39
-86.98
-94.62
-100.65
-104.44
-105.61
-104.23
-100.47
-94.25
-84.89
-71.44
-53.28
-31.00
-6.54
17.28
37.74
53.21
63.47
69.45
72.47
73.65
73.60
72.59
70.84
68.71
66.56
64.67
63.01
61.30
59.18
56.35
52.74
48.48
43.87
39.28
35.02
31.30
28.15
25.45
22.88
20.08
16.71
12.57
7.71
2.35
-3.27
-9.03
-14.89
-20.76
-26.30
-30.80
-33.39
-33.39
-30.61
-25.55
-19.15
-12.47
-6.21
-0.67
4.22
8.58
12.35
15.32
17.20
17.92
17.73
17.21
17.04
17.70
19.26
21.29
23.16
24.30
24.59
24.36
24.13
24.25
24.59
24.57
23.49
20.98
17.30
13.29
10.01
8.15
7.72
7.93
7.61
5.72
1.92
-3.26
-8.60
-12.66
-14.36
-13.24
-9.67
-4.77
-0.28
1.80
-0.22
-6.93
-17.38
-29.03
-38.58
-43.40
-42.75
-38.20
-32.91
-30.07
-31.33
-36.14
-42.19
-46.54
-46.97
-42.55
-33.64
-21.47
-7.56
6.59
19.62
30.38
38.06
42.23
43.00
40.87
36.64
31.19
25.39
19.98
15.45
11.98
9.32
6.99
4.43
1.28
-2.49
-6.59
-10.64
-14.39
-17.87
-21.38
-25.17
-29.27
-33.23
-36.19
-37.10
-35.17
-30.21
-22.77
-13.90
-4.78
3.64
10.79
16.46
20.55
23.00
23.77
22.87
20.50
16.98
12.65
7.82
2.68
-2.54
-7.51
-11.80
-15.09
-17.24
-18.43
-19.07
-19.59
-20.31
-21.43
-22.92
-24.60
-26.14
-27.06
-26.85
-25.20
-22.16
-18.32
-14.71
-12.57
-12.98
-16.49
-22.78
-30.70
-38.42
-43.97
-45.81
-43.28
-36.72
-27.28
-16.40
-5.24
5.58
15.98
26.12
35.98
45.12
52.81
58.36
61.61
63.06
63.81
65.05
67.51
71.14
75.08
78.12
79.24
78.13
75.37
72.22
70.19
70.54
73.76
79.21
85.06
88.54
86.40
75.67
54.46
22.72
-17.35
-61.46
-104.23
-140.68
-167.72
-184.98
-194.41
-198.80
-200.09
-198.28
-191.66
-178.30
-157.65
-131.44
-103.33
-77.26
-55.81
-39.39
-26.67
-15.90
-6.11
2.42
8.73
12.26
13.60
14.50
16.93
22.08
29.63
37.90
44.76
48.65
49.25
47.53
45.08
43.30
42.90
43.70
44.88
45.44
44.65
42.21
38.44
33.96
29.47
25.52
22.33
19.84
17.79
15.78
13.24
9.46
3.88
-3.52
-11.75
-18.75
-21.92
-19.09
-9.43
6.18
25.46
45.53
63.59
77.34
84.92
85.12
77.64
63.56
45.41
26.56
10.16
-1.90
-9.21
-12.39
-12.17
-8.94
-2.80
5.70
15.19
23.63
29.12
30.91
29.64
26.91
24.30
22.44
20.91
18.68
14.93
9.60
3.40
-2.69
-7.87
-11.81
-14.58
-16.53
-18.17
-20.11
-22.99
-26.98
-31.40
-34.60
-34.40
-29.05
-18.30
-3.66
12.01
25.82
36.14
43.16
48.68
55.12
64.45
77.48
93.39
109.75
122.87
128.56
123.06
104.12
71.95
29.47
-17.99
-63.91
-102.18
-128.70
-142.22
-144.36
-138.39
-127.76
-114.86
-100.53
-84.80
-67.87
-50.98
-36.30
-25.96
-20.76
-19.64
-20.30
-20.44
-19.15
-17.23
-16.60
-18.90
-24.20
-30.72
-35.51
-35.89
-30.68
-20.78
-8.66
2.80
11.56
17.12
20.42
23.13
26.55
31.05
35.85
39.58
41.08
39.99
36.90
33.04
29.62
27.30
26.04
25.24
24.07
21.87
18.29
13.39
7.59
1.61
-3.75
-7.81
-10.18
-10.96
-10.57
-9.59
-8.53
-7.63
-6.91
-6.33
-5.96
-6.08
-7.03
-9.08
-12.05
-15.28
-17.68
-18.03
-15.43
-9.67
-1.34
8.49
18.75
28.75
38.38
47.89
57.51
67.10
76.13
83.81
89.43
92.50
92.78
90.19
84.70
76.43
65.74
53.29
40.12
27.35
15.96
6.49
-1.03
-6.96
-11.79
-15.85
-19.23
-21.80
-23.34
-23.66
-22.66
-20.29
-16.71
-12.29
-7.83
-4.45
-3.39
-5.65
-11.64
-21.07
-33.00
-46.07
-58.64
-68.96
-75.38
-76.74
-72.77
-64.31
-53.13
-41.30
-30.45
-21.28
-13.65
-6.99
-0.98
4.28
8.38
11.09
12.61
13.51
14.39
15.52
16.78
17.83
18.45
18.68
18.74
18.80
18.85
18.63
17.85
16.37
14.28
11.77
9.06
6.19
3.14
-0.15
-3.66
-7.28
-10.85
-14.21
-17.31
-20.21
-23.17
-26.52
-30.61
-35.55
-41.08
-46.47
-50.67
-52.67
-51.78
-47.86
-41.32
-32.91
-23.41
-13.53
-3.88
5.03
12.64
18.54
22.45
24.46
25.01
24.66
24.02
23.47
23.14
22.94
22.73
22.41
21.92
21.27
20.44
19.44
18.30
17.13
15.92
14.57
12.79
10.20
6.54
1.90
-3.14
-7.80
-11.34
-13.48
-14.53
-15.26
-16.56
-19.11
-23.12
-28.20
-33.51
-37.86
-40.05
-39.26
-35.30
-28.74
-20.67
-12.33
-4.64
2.03
7.79
12.90
17.43
21.16
23.70
24.78
24.49
23.26
21.68
20.26
19.19
18.30
17.27
15.78
13.77
11.50
9.41
7.84
6.81
6.01
4.88
2.95
-0.05
-4.04
-8.64
-13.33
-17.60
-21.07
-23.65
-25.52
-27.16
-29.15
-32.04
-36.07
-41.04
-46.27
-50.75
-53.37
-53.26
-50.02
-43.83
-35.45
-25.96
-16.42
-7.56
0.35
7.34
13.56
18.92
23.07
25.63
26.37
25.53
23.77
21.99
21.01
21.28
22.66
24.52
25.98
26.21
24.84
22.04
18.47
14.93
11.95
9.60
7.53
5.20
2.27
-1.20
-4.92
-8.45
-11.55
-14.29
-16.87
-19.63
-22.79
-26.54
-30.98
-36.13
-41.70
-47.06
-51.21
-52.97
-51.40
-46.14
-37.70
-27.24
-16.39
-6.60
1.15
6.66
10.30
12.69
14.37
15.51
16.11
16.11
15.74
15.44
15.70
16.74
18.24
19.54
19.88
18.95
16.97
14.64
12.68
11.45
10.85
10.31
9.25
7.30
4.54
1.37
-1.70
-4.34
-6.45
-8.21
-9.88
-11.80
-14.28
-17.61
-21.93
-27.17
-32.92
-38.41
-42.60
-44.45
-43.25
-38.84
-31.77
-23.16
-14.36
-6.49
-0.11
4.89
8.99
12.70
16.15
18.98
20.75
21.25
20.83
20.25
20.24
21.08
22.38
23.38
23.43
22.42
20.81
19.31
18.43
18.14
17.98
17.27
15.53
12.64
8.88
4.74
0.71
-2.84
-5.78
-8.16
-10.25
-12.39
-14.95
-18.15
-21.98
-26.10
-29.89
-32.58
-33.44
-32.02
-28.28
-22.58
-15.50
-7.71
0.18
7.72
14.56
20.42
25.03
28.20
29.91
30.40
30.12
29.64
29.44
29.71
30.32
30.94
31.18
30.84
29.92
28.69
27.49
26.56
25.87
25.07
23.73
21.42
17.99
13.55
8.52
3.46
-1.16
-5.10
-8.35
-11.21
-14.11
-17.50
-21.70
-26.74
-32.24
-37.46
-41.41
-43.18
-42.21
-38.53
-32.64
-25.36
-17.49
-9.62
-2.08
5.00
11.54
17.42
22.42
26.34
29.03
30.38
30.41
29.19
26.96
23.99
20.68
17.35
14.21
11.36
8.78
6.45
4.30
2.19
-0.10
-2.88
-6.42
-10.76
-15.64
-20.51
-24.78
-27.99
-30.06
-31.17
-31.75
-32.25
-33.07
-34.55
-36.92
-40.13
-43.73
-46.79
-48.16
-46.84
-42.45
-35.33
-26.44
-16.87
-7.49
1.24
9.13
16.06
21.75
25.95
28.54
29.81
30.37
30.96
32.02
33.54
35.05
35.90
35.72
34.53
32.75
30.84
29.06
27.28
25.10
22.23
18.64
14.73
10.99
7.84
5.29
3.12
0.93
-1.57
-4.53
-8.03
-12.05
-16.61
-21.73
-27.44
-33.78
-40.62
-47.44
-53.17
-56.38
-55.75
-50.80
-42.16
-31.47
-20.59
-10.84
-2.52
4.87
11.91
18.71
24.67
28.94
31.08
31.35
30.66
30.06
30.17
31.02
32.12
32.82
32.69
31.68
30.04
28.24
26.70
25.66
25.18
25.05
24.90
24.33
22.97
20.58
17.06
12.47
7.06
1.27
-4.35
-9.33
-13.41
-16.74
-19.80
-23.31
-27.79
-33.36
-39.58
-45.47
-49.86
-51.65
-50.18
-45.39
-37.82
-28.42
-18.34
-8.59
0.23
7.91
14.55
20.16
24.59
27.51
28.65
28.09
26.42
24.63
23.69
24.10
25.64
27.50
28.60
28.13
25.83
22.02
17.34
12.38
7.52
2.84
-1.64
-5.89
-9.83
-13.40
-16.70
-19.91
-23.21
-26.66
-30.22
-33.88
-37.78
-42.13
-47.08
-52.56
-58.26
-63.63
-68.13
-71.10
-71.81
-69.42
-63.23
-53.02
-39.38
-23.75
-7.93
6.43
18.49
28.17
35.89
42.08
46.98
50.54
52.82
54.15
55.16
56.59
58.87
62.00
65.43
68.26
69.60
68.85
65.88
61.06
55.13
48.91
43.04
37.77
32.97
28.30
23.40
18.31
13.37
9.25
6.59
5.69
6.23
7.33
7.80
6.51
2.85
-3.16
-10.82
-18.99
-26.35
-31.69
-34.13
-33.27
-29.30
-22.82
-14.80
-6.19
2.23
9.92
16.56
21.80
25.21
26.38
25.26
22.35
18.76
15.89
14.69
15.31
16.90
17.99
17.24
14.10
9.07
3.49
-1.11
-3.69
-4.18
-3.44
-2.88
-3.71
-6.36
-10.26
-14.17
-16.84
-17.67
-16.92
-15.45
-14.08
-13.25
-12.99
-13.28
-14.40
-16.82
-20.85
-26.12
-31.40
-35.04
-35.57
-32.43
-26.12
-17.85
-9.00
-0.70
6.44
12.10
16.15
18.63
19.65
19.53
18.72
17.69
16.87
16.43
16.30
16.20
15.75
14.73
13.11
11.19
9.49
8.54
8.56
9.34
10.20
10.27
8.88
5.86
1.61
-3.07
-7.38
-10.91
-13.66
-15.98
-18.30
-20.88
-23.83
-27.15
-30.83
-34.74
-38.51
-41.38
-42.38
-40.65
-35.81
-28.16
-18.67
-8.52
1.18
9.79
17.11
23.27
28.42
32.52
35.28
36.37
35.62
33.24
29.83
26.21
23.08
20.74
19.04
17.49
15.64
13.34
10.79
8.38
6.41
4.95
3.77
2.58
1.11
-0.83
-3.35
-6.43
-9.98
-13.82
-17.66
-21.31
-24.68
-27.97
-31.46
-35.41
-39.89
-44.68
-49.38
-53.34
-55.88
-56.29
-53.98
-48.77
-41.02
-31.68
-21.97
-12.91
-4.90
2.32
9.38
16.68
24.03
30.63
35.38
37.49
36.91
34.34
30.91
27.64
25.20
23.87
23.76
24.91
27.18
29.97
32.17
32.46
29.94
24.75
18.09
11.80
7.46
5.60
5.57
5.91
5.26
2.85
-1.29
-6.72
-13.02
-20.06
-27.68
-35.46
-42.48
-47.40
-49.05
-46.85
-41.14
-33.00
-23.83
-14.89
-6.86
0.00
5.85
10.84
15.01
18.20
20.17
20.80
20.12
18.49
16.41
14.35
12.55
10.83
8.65
5.39
0.71
-5.18
-11.48
-17.14
-21.17
-23.06
-22.96
-21.59
-20.10
-19.66
-21.12
-24.63
-29.61
-34.88
-39.11
-41.44
-41.71
-40.60
-39.17
-38.16
-37.52
-36.40
-33.53
-28.02
-19.86
-9.96
0.37
10.11
19.02
27.57
36.38
45.51
54.22
61.14
65.05
65.55
63.39
60.13
57.36
55.96
55.66
55.40
53.95
50.68
45.86
40.46
35.66
32.10
29.63
27.40
24.43
20.11
14.51
8.28
2.14
-3.43
-8.43
-13.24
-18.28
-23.75
-29.57
-35.60
-41.73
-47.93
-54.01
-59.46
-63.28
-64.38
-61.98
-56.06
-47.49
-37.66
-27.99
-19.32
-11.84
-5.21
0.89
6.44
10.99
13.94
14.95
14.25
12.60
11.02
10.33
10.70
11.68
12.45
12.31
11.04
9.03
6.96
5.37
4.25
3.06
1.07
-2.18
-6.57
-11.38
-15.63
-18.62
-20.24
-21.00
-21.79
-23.48
-26.55
-30.99
-36.34
-41.87
-46.73
-50.07
-51.19
-49.62
-45.22
-38.29
-29.46
-19.59
-9.52
0.13
9.06
17.18
24.40
30.48
35.02
37.72
38.47
37.67
35.94
34.03
32.46
31.39
30.64
29.93
29.03
27.91
26.64
25.27
23.73
21.77
19.17
15.89
12.18
8.51
5.37
3.04
1.43
0.12
-1.44
-3.74
-7.09
-11.65
-17.45
-24.32
-31.78
-38.90
-44.40
-47.00
-45.88
-41.04
-33.36
-24.27
-15.23
-7.20
-0.40
5.48
10.93
16.14
20.82
24.40
26.36
26.69
25.91
24.94
24.51
24.80
25.35
25.37
24.31
22.13
19.37
16.68
14.49
12.67
10.77
8.35
5.28
1.79
-1.68
-4.74
-7.30
-9.48
-11.49
-13.51
-15.66
-18.11
-21.06
-24.77
-29.36
-34.62
-39.87
-44.08
-46.15
-45.32
-41.44
-34.95
-26.65
-17.34
-7.61
2.17
11.73
20.61
28.24
34.04
37.72
39.40
39.64
39.14
38.56
38.30
38.41
38.69
38.81
38.44
37.41
35.76
33.75
31.68
29.75
27.85
25.72
22.98
19.46
15.28
10.82
6.59
2.85
-0.38
-3.37
-6.52
-10.21
-14.62
-19.72
-25.20
-30.45
-34.74
-37.33
-37.67
-35.57
-31.10
-24.65
-16.73
-7.98
0.94
9.35
16.68
22.45
26.40
28.51
28.93
27.99
26.10
23.77
21.44
19.49
18.13
17.38
17.15
17.32
17.82
18.56
19.29
19.55
18.72
16.20
11.76
5.71
-1.12
-7.70
-13.13
-17.03
-19.59
-21.45
-23.39
-26.08
-29.83
-34.67
-40.35
-46.34
-51.85
-55.82
-57.15
-55.09
-49.67
-41.68
-32.47
-23.29
-14.87
-7.27
-0.16
6.69
13.05
18.29
21.77
23.28
23.26
22.61
22.22
22.50
23.23
23.75
23.38
21.84
19.37
16.61
14.28
12.73
11.76
10.68
8.73
5.41
0.80
-4.45
-9.45
-13.51
-16.35
-18.19
-19.54
-20.97
-22.92
-25.72
-29.54
-34.36
-39.84
-45.19
-49.20
-50.60
-48.46
-42.59
-33.63
-22.78
-11.40
-0.52
9.25
17.65
24.58
29.83
33.24
34.74
34.61
33.49
32.19
31.33
31.14
31.32
31.24
30.34
28.43
25.74
22.86
20.38
18.58
17.27
15.93
13.92
10.82
6.60
1.58
-3.66
-8.67
-13.18
-17.18
-20.81
-24.27
-27.69
-31.16
-34.76
-38.53
-42.39
-46.00
-48.68
-49.57
-47.93
-43.38
-36.14
-26.90
-16.55
-5.99
4.09
13.21
20.97
27.10
31.40
33.86
34.62
34.07
32.77
31.39
30.52
30.53
31.40
32.70
33.84
34.26
33.72
32.36
30.53
28.52
26.36
23.81
20.49
16.24
11.15
5.67
0.32
-4.46
-8.47
-11.80
-14.82
-17.97
-21.66
-26.06
-31.06
-36.23
-40.93
-44.44
-46.14
-45.60
-42.61
-37.32
-30.11
-21.66
-12.68
-3.82
4.49
12.19
19.39
26.24
32.74
38.67
43.63
47.24
49.26
49.70
48.74
46.73
43.98
40.59
36.57
31.80
26.28
20.23
14.12
8.57
4.15
1.23
-0.13
-0.09
1.03
2.88
5.08
7.22
8.89
9.67
9.22
7.27
3.60
-1.92
-9.27
-18.16
-27.84
-37.12
-44.63
-49.17
-50.13
-47.63
-42.34
-35.15
-26.82
-17.89
-8.71
0.34
8.80
16.10
21.83
25.84
28.26
29.46
29.79
29.56
28.89
27.84
26.43
24.70
22.69
20.50
18.18
15.75
13.26
10.66
7.92
5.01
1.95
-1.14
-4.15
-6.90
-9.26
-11.13
-12.50
-13.48
-14.39
-15.71
-18.03
-21.83
-27.17
-33.59
-40.01
-45.08
-47.50
-46.53
-42.22
-35.25
-26.71
-17.61
-8.61
-0.05
7.94
15.16
21.29
25.84
28.50
29.27
28.51
26.76
24.65
22.59
20.72
19.04
17.37
15.56
13.50
11.20
8.70
6.08
3.37
0.54
-2.53
-5.99
-9.85
-13.91
-17.79
-20.95
-23.08
-24.21
-24.80
-25.57
-27.17
-29.95
-33.86
-38.48
-43.13
-47.08
-49.58
-50.06
-48.15
-43.83
-37.43
-29.54
-20.95
-12.35
-4.27
3.01
9.45
15.11
20.04
24.18
27.41
29.54
30.54
30.57
29.98
29.17
28.30
27.23
25.59
23.08
19.71
15.87
12.17
9.08
6.68
4.65
2.49
-0.13
-3.23
-6.50
-9.54
-12.09
-14.17
-15.97
-17.81
-19.97
-22.65
-25.97
-30.00
-34.65
-39.52
-43.87
-46.72
-47.14
-44.58
-39.04
-31.07
-21.51
-11.28
-1.08
8.62
17.41
24.95
30.80
34.72
36.64
36.88
35.95
34.47
32.98
31.78
30.97
30.45
30.03
29.45
28.44
26.84
24.66
22.09
19.38
16.73
14.11
11.30
8.06
4.25
0.04
-4.15
-7.82
-10.58
-12.31
-13.27
-13.91
-14.81
-16.49
-19.29
-23.22
-27.91
-32.64
-36.45
-38.39
-37.76
-34.36
-28.50
-20.93
-12.61
-4.42
3.09
9.72
15.59
20.86
25.53
29.39
32.20
33.79
34.28
34.00
33.24
32.09
30.45
28.22
25.44
22.48
19.86
17.96
16.81
16.04
15.01
13.15
10.10
5.89
0.85
-4.46
-9.47
-13.63
-16.70
-18.74
-20.14
-21.42
-23.03
-25.14
-27.65
-30.23
-32.46
-33.91
-34.08
-32.55
-29.03
-23.45
-16.17
-7.91
0.37
7.89
14.16
19.17
23.26
26.84
30.17
33.23
35.86
37.79
38.88
39.12
38.62
37.56
36.09
34.34
32.36
30.16
27.70
24.94
21.86
18.43
14.67
10.53
5.99
1.04
-4.15
-9.24
-13.71
-17.12
-19.27
-20.38
-21.01
-21.91
-23.84
-27.23
-32.11
-38.01
-43.99
-48.92
-51.80
-52.14
-49.97
-45.79
-40.13
-33.35
-25.55
-16.74
-7.10
2.88
12.32
20.27
25.99
29.18
30.11
29.47
28.18
27.03
26.38
26.00
25.31
23.62
20.62
16.61
12.37
8.77
6.27
4.72
3.40
1.49
-1.48
-5.38
-9.57
-13.35
-16.26
-18.34
-19.95
-21.56
-23.46
-25.84
-28.86
-32.64
-37.27
-42.49
-47.50
-51.03
-51.74
-48.75
-42.02
-32.50
-21.67
-11.14
-2.10
5.03
10.44
14.77
18.60
22.21
25.45
27.93
29.36
29.83
29.88
30.12
30.90
31.94
32.46
31.63
29.10
25.23
20.92
17.15
14.34
12.24
10.09
7.12
3.04
-1.79
-6.60
-10.64
-13.60
-15.77
-17.81
-20.36
-23.70
-27.68
-31.92
-36.08
-39.99
-43.50
-46.27
-47.65
-46.83
-43.28
-37.01
-28.72
-19.50
-10.37
-1.92
5.69
12.56
18.72
24.05
28.32
31.40
33.40
34.58
35.22
35.48
35.30
34.51
32.97
30.74
28.09
25.54
23.65
22.83
23.16
24.22
25.28
25.46
24.26
21.65
18.10
14.23
10.46
6.86
3.13
-1.07
-5.91
-11.30
-17.06
-23.11
-29.46
-36.09
-42.64
-48.24
-51.68
-51.85
-48.29
-41.37
-32.20
-22.15
-12.43
-3.74
3.74
10.22
16.05
21.41
26.29
30.35
33.22
34.60
34.57
33.66
32.70
32.40
32.93
33.89
34.44
33.90
32.11
29.49
26.62
23.87
21.20
18.27
14.89
11.13
7.34
3.88
0.89
-1.72
-4.12
-6.39
-8.61
-10.93
-13.69
-17.30
-21.93
-27.30
-32.60
-36.89
-39.36
-39.69
-37.94
-34.40
-29.41
-23.25
-16.22
-8.73
-1.25
5.69
11.67
16.42
19.83
21.85
22.51
21.90
20.30
18.25
16.41
15.47
15.83
17.39
19.57
21.58
22.69
22.60
21.44
19.64
17.57
15.37
12.94
10.00
6.50
2.62
-1.20
-4.52
-7.17
-9.32
-11.39
-13.75
-16.61
-19.93
-23.69
-27.99
-32.96
-38.49
-43.84
-47.69
-48.57
-45.48
-38.47
-28.69
-17.90
-7.75
0.81
7.60
12.79
16.52
18.61
18.87
17.47
15.06
12.73
11.44
11.63
13.08
15.11
16.97
18.19
18.59
18.25
17.29
15.80
13.86
11.57
9.10
6.55
3.92
1.10
-2.03
-5.48
-9.09
-12.55
-15.57
-18.10
-20.43
-23.28
-27.42
-33.23
-40.32
-47.56
-53.28
-55.92
-54.64
-49.45
-41.16
-30.89
-19.69
-8.52
1.76
10.26
16.18
19.14
19.40
17.92
15.97
14.66
14.52
15.48
17.01
18.52
19.63
20.21
20.35
20.23
20.02
19.84
19.85
20.05
20.31
20.32
19.64
17.93
15.06
11.22
6.85
2.48
-1.45
-4.64
-7.10
-9.02
-10.92
-13.51
-17.49
-23.16
-30.09
-37.01
-42.20
-44.20
-42.41
-37.28
-30.02
-21.83
-13.55
-5.41
2.63
10.47
17.68
23.60
27.62
29.49
29.46
28.18
26.48
25.09
24.44
24.54
25.04
25.35
24.93
23.64
21.70
19.66
17.96
16.68
15.52
14.00
11.76
8.75
5.23
1.66
-1.53
-4.14
-6.19
-7.91
-9.64
-11.68
-14.32
-17.79
-22.23
-27.65
-33.66
-39.47
-43.91
-45.75
-44.15
-38.94
-30.79
-20.90
-10.63
-1.00
7.39
14.35
19.82
23.71
25.97
26.66
26.16
25.03
23.99
23.53
23.90
24.98
26.36
27.52
27.94
27.35
25.69
23.29
20.64
18.21
16.22
14.48
12.47
9.57
5.44
0.15
-5.70
-11.34
-16.17
-19.98
-23.10
-26.14
-29.80
-34.53
-40.51
-47.46
-54.76
-61.49
-66.39
-68.16
-65.64
-58.38
-46.97
-33.12
-19.33
-7.99
-0.62
2.67
3.11
2.61
2.90
4.86
8.44
12.98
17.89
23.04
28.76
35.50
43.31
51.67
59.62
66.25
71.07
74.22
76.27
77.76
78.77
78.75
76.89
72.64
66.34
59.20
52.88
48.51
45.95
43.60
39.09
30.35
16.66
-0.95
-20.19
-38.39
-53.42
-64.22
-70.67
-73.18
-72.27
-68.41
-62.09
-53.95
-44.84
-35.64
-27.13
-19.81
-13.91
-9.37
-6.02
-3.62
-1.88
-0.57
0.52
1.53
2.54
3.56
4.62
5.73
6.87
7.98
8.91
9.50
9.57
9.03
7.82
5.94
3.42
0.34
-3.20
-6.99
-10.76
-14.20
-17.15
-19.69
-22.23
-25.38
-29.60
-34.89
-40.58
-45.45
-48.09
-47.49
-43.35
-36.28
-27.43
-18.15
-9.42
-1.72
4.90
10.54
15.19
18.62
20.53
20.80
19.69
17.83
15.97
14.70
14.19
14.16
14.14
13.80
13.14
12.47
12.22
12.51
13.07
13.34
12.70
10.86
7.85
4.07
0.01
-3.88
-7.29
-10.11
-12.36
-14.24
-16.07
-18.27
-21.26
-25.24
-30.12
-35.36
-40.15
-43.44
-44.32
-42.19
-36.96
-29.13
-19.63
-9.64
-0.19
8.06
14.94
20.62
25.41
29.44
32.62
34.77
35.84
36.07
35.98
36.18
36.96
38.17
39.21
39.35
38.11
35.54
32.19
28.80
25.91
23.60
21.55
19.25
16.33
12.69
8.51
4.11
-0.11
-3.82
-6.85
-9.23
-11.31
-13.69
-17.04
-21.92
-28.46
-36.24
-44.37
-51.60
-56.63
-58.44
-56.48
-50.91
-42.53
-32.53
-22.17
-12.38
-3.67
3.85
10.19
15.31
19.10
21.45
22.42
22.28
21.45
20.30
19.08
17.91
16.84
15.97
15.41
15.21
15.30
15.51
15.65
15.54
15.03
14.04
12.46
10.20
7.27
3.83
0.18
-3.28
-6.26
-8.68
-10.77
-13.01
-15.96
-20.00
-25.10
-30.71
-35.88
-39.48
-40.58
-38.75
-34.19
-27.61
-19.98
-12.15
-4.67
2.17
8.27
13.45
17.44
20.00
21.04
20.77
19.72
18.48
17.60
17.34
17.70
18.44
19.29
20.06
20.76
21.50
22.44
23.53
24.53
24.93
24.19
21.98
18.35
13.71
8.74
4.08
0.13
-3.01
-5.51
-7.66
-9.79
-12.28
-15.55
-20.00
-25.76
-32.42
-39.01
-44.14
-46.47
-45.19
-40.38
-32.85
-23.86
-14.58
-5.74
2.29
9.41
15.41
20.01
22.87
24.00
23.73
22.71
21.57
20.67
19.99
19.22
18.00
16.19
13.96
11.72
9.87
8.63
7.83
7.03
5.63
3.28
-0.04
-3.89
-7.62
-10.69
-12.90
-14.50
-16.01
-17.94
-20.61
-24.09
-28.34
-33.25
-38.65
-44.05
-48.63
-51.26
-50.84
-46.76
-39.27
-29.39
-18.62
-8.42
0.29
7.26
12.75
17.22
20.95
23.93
25.93
26.79
26.55
25.56
24.32
23.20
22.32
21.51
20.54
19.30
17.95
16.80
16.06
15.66
15.18
14.06
11.91
8.78
5.16
1.76
-0.77
-2.20
-2.78
-3.14
-4.02
-6.06
-9.58
-14.54
-20.54
-26.91
-32.77
-37.21
-39.43
-38.96
-35.81
-30.42
-23.53
-16.04
-8.64
-1.79
4.38
9.91
14.88
19.25
22.84
25.46
26.95
27.47
27.34
27.03
26.90
27.00
27.14
26.95
26.21
24.87
23.22
21.64
20.43
19.64
18.97
17.99
16.30
13.77
10.66
7.46
4.67
2.56
1.02
-0.37
-2.13
-4.72
-8.39
-13.16
-18.81
-24.83
-30.39
-34.44
-36.00
-34.49
-30.06
-23.52
-16.02
-8.66
-1.99
3.85
9.08
13.86
18.15
21.74
24.37
25.98
26.71
26.86
26.65
26.13
25.24
23.91
22.29
20.68
19.45
18.76
18.52
18.37
17.87
16.72
14.86
12.42
9.55
6.34
2.84
-0.78
-4.14
-6.79
-8.47
-9.40
-10.32
-12.31
-16.24
-22.35
-29.98
-37.71
-43.83
-46.93
-46.43
-42.66
-36.53
-29.11
-21.15
-12.91
-4.48
3.91
11.61
17.60
21.04
21.66
20.09
17.54
15.27
14.05
13.84
14.11
14.23
13.91
13.30
12.83
12.84
13.37
14.18
14.83
14.92
14.23
12.62
10.14
6.94
3.30
-0.49
-4.15
-7.66
-11.12
-14.75
-18.72
-23.06
-27.77
-32.84
-38.24
-43.73
-48.67
-52.05
-52.72
-49.98
-43.92
-35.47
-26.00
-16.75
-8.34
-0.73
6.47
13.55
20.30
26.20
30.56
33.03
33.79
33.53
33.21
33.62
35.11
37.43
40.00
42.02
42.88
42.25
40.11
36.62
32.04
26.61
20.56
14.14
7.65
1.44
-4.15
-8.93
-12.90
-16.28
-19.48
-23.06
-27.54
-33.25
-40.21
-47.98
-55.68
-62.12
-66.09
-66.73
-63.74
-57.54
-49.07
-39.52
-30.06
-21.52
-14.29
-8.34
-3.30
1.29
5.73
10.09
14.14
17.53
20.03
21.63
22.63
23.43
24.30
25.22
25.85
25.79
24.78
22.95
20.70
18.53
16.74
15.21
13.50
11.11
7.86
4.01
0.22
-2.88
-5.03
-6.55
-8.16
-10.66
-14.54
-19.89
-26.36
-33.29
-39.85
-45.06
-48.03
-48.02
-44.72
-38.47
-30.10
-20.84
-11.82
-3.78
3.05
8.89
14.12
18.91
23.16
26.52
28.62
29.33
29.01
28.34
27.96
28.14
28.66
28.93
28.46
27.20
25.54
24.16
23.53
23.64
23.95
23.69
22.18
19.23
15.17
10.70
6.53
3.10
0.45
-1.85
-4.42
-7.84
-12.45
-18.16
-24.52
-30.83
-36.27
-39.95
-41.14
-39.35
-34.56
-27.22
-18.24
-8.78
0.10
7.61
13.44
17.64
20.47
22.23
23.09
23.22
22.78
22.05
21.36
21.03
21.15
21.57
21.99
22.16
22.13
22.23
22.85
24.02
25.33
25.94
25.06
22.36
18.05
12.75
7.21
1.97
-2.70
-6.77
-10.30
-13.45
-16.48
-19.76
-23.62
-28.19
-33.19
-37.86
-41.26
-42.50
-41.08
-37.01
-30.78
-23.11
-14.81
-6.58
1.09
7.88
13.57
18.03
21.17
23.09
24.08
24.60
25.13
25.95
26.99
27.85
28.02
27.06
24.95
22.05
18.95
16.14
13.78
11.67
9.44
6.80
3.70
0.33
-3.11
-6.51
-9.93
-13.44
-17.03
-20.54
-23.77
-26.68
-29.49
-32.74
-36.85
-41.85
-47.04
-51.09
-52.47
-50.18
-44.16
-35.34
-25.28
-15.39
-6.48
1.31
8.19
14.21
19.03
22.12
23.20
22.61
21.24
20.11
19.82
20.35
21.14
21.58
21.38
20.74
20.08
19.85
20.11
20.55
20.55
19.41
16.74
12.58
7.43
2.09
-2.56
-5.92
-7.94
-9.04
-10.03
-11.64
-14.35
-18.16
-22.72
-27.49
-31.89
-35.40
-37.50
-37.82
-36.11
-32.40
-27.10
-20.82
-14.29
-8.14
-2.71
1.96
5.97
9.41
12.27
14.40
15.73
16.30
16.38
16.33
16.48
17.01
17.89
18.95
19.98
20.80
21.28
21.33
20.92
19.96
18.36
15.96
12.57
8.13
2.84
-2.80
-8.09
-12.34
-15.20
-16.76
-17.54
-18.24
-19.48
-21.71
-25.05
-29.40
-34.28
-38.88
-42.09
-42.81
-40.38
-34.92
-27.30
-18.90
-10.97
-4.20
1.41
6.31
10.90
15.24
19.05
21.88
23.56
24.28
24.54
24.82
25.36
26.01
26.35
26.01
24.82
22.92
20.70
18.59
16.95
15.93
15.43
15.17
14.76
13.81
12.04
9.35
5.85
1.83
-2.39
-6.66
-10.99
-15.55
-20.52
-25.90
-31.39
-36.36
-39.99
-41.52
-40.57
-37.22
-32.03
-25.72
-18.96
-12.15
-5.47
1.00
7.10
12.54
16.98
20.19
22.19
23.26
23.79
24.08
24.23
24.12
23.55
22.42
20.80
18.94
17.13
15.58
14.31
13.21
12.08
10.67
8.84
6.53
3.79
0.79
-2.20
-4.97
-7.40
-9.68
-12.14
-15.14
-18.93
-23.46
-28.36
-33.04
-36.83
-39.17
-39.67
-38.28
-35.25
-31.10
-26.41
-21.61
-16.86
-11.97
-6.57
-0.29
6.85
14.27
20.98
25.87
28.11
27.35
23.93
18.78
13.09
8.05
4.54
2.96
3.22
4.91
7.39
10.05
12.38
14.10
15.12
15.59
15.81
16.05
16.45
16.84
16.87
16.07
14.07
10.77
6.34
1.14
-4.44
-9.91
-14.73
-18.27
-19.89
-19.10
-15.87
-10.58
-4.06
2.61
8.42
12.58
14.76
15.12
14.31
13.21
12.66
13.19
14.84
17.26
19.94
22.41
24.37
25.53
25.67
24.60
22.28
18.95
15.11
11.28
7.80
4.67
1.61
-1.76
-5.67
-10.13
-14.91
-19.67
-24.12
-28.24
-32.27
-36.69
-41.91
-47.89
-53.92
-58.67
-60.65
-58.80
-52.94
-43.83
-32.76
-21.11
-9.84
0.49
9.56
16.98
22.25
24.91
24.92
22.76
19.35
15.73
12.63
10.33
8.67
7.34
6.12
5.05
4.37
4.39
5.18
6.38
7.30
7.15
5.41
2.08
-2.24
-6.61
-10.18
-12.61
-14.17
-15.61
-17.76
-21.13
-25.76
-31.17
-36.55
-41.00
-43.71
-44.02
-41.63
-36.61
-29.38
-20.69
-11.50
-2.65
5.24
11.88
17.31
21.69
25.22
28.00
30.05
31.30
31.70
31.31
30.31
29.03
27.72
26.53
25.37
24.11
22.66
21.06
19.53
18.21
17.12
16.04
14.70
12.85
10.52
7.97
5.62
3.75
2.35
1.08
-0.66
-3.45
-7.70
-13.38
-20.00
-26.65
-32.11
-35.33
-35.56
-32.71
-27.29
-20.18
-12.33
-4.48
3.03
10.05
16.46
21.98
26.28
29.10
30.51
30.89
30.79
30.55
30.25
29.68
28.60
26.95
24.97
23.06
21.58
20.64
20.06
19.53
18.71
17.42
15.62
13.39
10.84
7.97
4.67
0.72
-4.10
-9.83
-16.26
-22.96
-29.37
-34.97
-39.37
-42.26
-43.42
-42.61
-39.67
-34.63
-27.76
-19.61
-10.83
-2.15
5.80
12.50
17.61
20.97
22.67
23.04
22.58
21.83
21.24
21.05
21.33
21.96
22.76
23.55
24.17
24.53
24.53
24.10
23.19
21.75
19.68
16.91
13.34
8.99
3.96
-1.48
-6.95
-12.18
-17.01
-21.60
-26.31
-31.55
-37.42
-43.51
-48.80
-51.94
-51.85
-48.09
-41.12
-32.12
-22.50
-13.34
-5.16
2.07
8.56
14.27
18.75
21.38
21.84
20.44
18.18
16.36
15.89
17.05
19.33
21.87
23.79
24.59
24.25
22.94
20.89
18.16
14.70
10.35
5.08
-1.01
-7.60
-14.25
-20.47
-25.84
-30.14
-33.36
-35.83
-37.95
-40.11
-42.51
-44.92
-46.75
-47.14
-45.31
-40.91
-34.23
-26.09
-17.55
-9.50
-2.32
3.93
9.37
13.93
17.28
19.17
19.59
19.00
18.17
17.82
18.29
19.51
21.10
22.67
23.96
24.82
25.18
24.91
23.93
22.20
19.88
17.19
14.27
11.20
7.93
4.50
1.11
-1.95
-4.54
-6.86
-9.46
-13.03
-18.05
-24.50
-31.74
-38.69
-44.14
-47.03
-46.79
-43.42
-37.43
-29.66
-21.07
-12.50
-4.53
2.55
8.69
13.95
18.42
22.13
25.13
27.50
29.42
31.10
32.65
33.99
34.82
34.77
33.59
31.33
28.41
25.40
22.83
20.88
19.36
17.88
16.07
13.83
11.27
8.73
6.45
4.57
2.96
1.42
-0.33
-2.54
-5.42
-9.23
-14.17
-20.31
-27.30
-34.28
-40.00
-43.08
-42.67
-38.72
-32.05
-23.92
-15.47
-7.33
0.33
7.50
13.99
19.25
22.74
24.28
24.34
23.88
23.93
25.10
27.29
29.86
31.98
33.06
32.94
31.92
30.47
28.99
27.59
26.07
24.14
21.51
18.21
14.51
10.78
7.24
3.81
0.27
-3.60
-7.82
-12.07
-15.97
-19.31
-22.30
-25.44
-29.25
-33.73
-38.19
-41.41
-42.08
-39.52
-33.94
-26.40
-18.31
-10.80
-4.30
1.36
6.64
11.81
16.61
20.43
22.62
23.03
22.04
20.54
19.44
19.29
20.04
21.22
22.20
22.55
22.25
21.61
20.97
20.43
19.74
18.39
15.95
12.31
7.86
3.35
-0.45
-3.09
-4.71
-6.04
-8.12
-11.79
-17.35
-24.38
-31.93
-38.88
-44.40
-48.09
-49.89
-49.76
-47.60
-43.28
-36.84
-28.80
-20.08
-11.66
-4.22
2.14
7.67
12.67
16.98
20.06
21.25
20.23
17.36
13.63
10.23
7.99
7.16
7.35
7.88
8.09
7.73
6.89
5.79
4.51
2.77
0.13
-3.75
-8.70
-14.01
-18.57
-21.45
-22.39
-21.88
-21.02
-21.00
-22.64
-26.12
-31.08
-36.76
-42.28
-46.77
-49.40
-49.54
-46.84
-41.41
-33.82
-24.95
-15.65
-6.58
1.90
9.61
16.33
21.75
25.55
27.58
28.11
27.68
27.02
26.65
26.79
27.21
27.51
27.38
26.68
25.51
24.00
22.23
20.16
17.71
14.87
11.74
8.50
5.24
1.95
-1.42
-4.88
-8.29
-11.43
-14.12
-16.41
-18.69
-21.54
-25.49
-30.67
-36.52
-41.92
-45.54
-46.28
-43.69
-38.12
-30.53
-22.02
-13.50
-5.44
2.11
9.14
15.50
20.84
24.69
26.81
27.32
26.79
25.94
25.49
25.87
27.12
28.93
30.69
31.75
31.65
30.23
27.72
24.63
21.47
18.61
16.18
14.11
12.34
10.82
9.41
7.94
6.08
3.55
0.21
-3.76
-8.12
-12.67
-17.46
-22.66
-28.27
-33.92
-38.71
-41.60
-41.73
-38.80
-33.13
-25.60
-17.26
-9.03
-1.50
5.13
10.94
16.11
20.76
24.81
27.95
29.86
30.41
29.78
28.51
27.19
26.19
25.49
24.71
23.45
21.48
18.93
16.06
13.11
10.06
6.65
2.62
-2.03
-6.99
-11.71
-15.70
-18.83
-21.39
-23.85
-26.61
-29.76
-33.02
-35.87
-37.84
-38.73
-38.54
-37.42
-35.38
-32.27
-27.79
-21.77
-14.30
-5.81
3.04
11.53
19.14
25.57
30.71
34.53
37.00
38.14
38.13
37.39
36.44
35.74
35.42
35.25
34.90
34.08
32.78
31.25
29.77
28.40
26.79
24.49
21.06
16.49
11.20
5.88
1.15
-2.70
-5.82
-8.68
-11.78
-15.53
-20.05
-25.27
-30.94
-36.68
-41.94
-46.06
-48.45
-48.66
-46.57
-42.36
-36.43
-29.30
-21.49
-13.53
-5.97
0.72
6.11
10.06
12.63
14.10
14.80
15.01
14.93
14.66
14.35
14.13
14.07
14.10
14.04
13.62
12.58
10.81
8.37
5.52
2.55
-0.26
-2.83
-5.23
-7.65
-10.23
-13.02
-15.95
-19.00
-22.28
-26.07
-30.65
-36.01
-41.66
-46.63
-49.74
-50.05
-47.21
-41.58
-34.02
-25.56
-17.02
-8.82
-1.10
6.13
12.65
18.07
21.94
23.98
24.35
23.66
22.87
22.76
23.64
25.18
26.64
27.26
26.72
25.24
23.32
21.41
19.54
17.41
14.60
11.01
7.01
3.24
0.29
-1.66
-3.01
-4.54
-7.10
-11.19
-16.81
-23.40
-30.11
-36.09
-40.65
-43.39
-44.06
-42.49
-38.56
-32.27
-23.93
-14.24
-4.18
5.15
12.94
18.84
22.98
25.84
27.90
29.50
30.64
31.19
30.95
29.84
28.03
25.81
23.56
21.53
19.85
18.46
17.25
16.10
14.91
13.58
11.93
9.78
6.99
3.51
-0.53
-4.81
-8.96
-12.64
-15.71
-18.35
-20.95
-24.08
-28.16
-33.14
-38.43
-42.85
-45.12
-44.26
-40.02
-32.94
-24.04
-14.44
-4.91
4.08
12.30
19.48
25.29
29.44
31.89
32.99
33.33
33.57
34.08
34.85
35.64
36.13
36.15
35.75
35.11
34.43
33.80
33.14
32.24
30.83
28.67
25.72
22.04
17.89
13.50
9.03
4.54
0.03
-4.53
-9.10
-13.66
-18.24
-22.88
-27.60
-32.28
-36.48
-39.57
-40.82
-39.73
-36.16
-30.44
-23.23
-15.24
-7.05
0.92
8.36
14.88
20.00
23.30
24.61
24.26
23.02
21.82
21.36
21.77
22.64
23.28
23.14
22.15
20.64
19.14
17.94
17.02
15.92
14.16
11.41
7.68
3.29
-1.32
-5.67
-9.49
-12.69
-15.45
-18.15
-21.27
-25.14
-29.72
-34.54
-38.73
-41.37
-41.83
-39.92
-35.93
-30.47
-24.26
-17.91
-11.86
-6.34
-1.44
2.84
6.53
9.65
12.25
14.33
15.98
17.29
18.41
19.33
19.96
20.00
19.15
17.31
14.69
11.83
9.28
7.44
6.25
5.27
3.79
1.24
-2.50
-7.04
-11.58
-15.38
-18.09
-19.95
-21.73
-24.33
-28.38
-33.96
-40.52
-47.01
-52.24
-55.09
-54.80
-51.10
-44.17
-34.67
-23.59
-12.13
-1.43
7.63
14.55
19.27
22.01
23.19
23.28
22.81
22.31
22.24
22.89
24.17
25.68
26.81
27.05
26.26
24.67
22.74
20.78
18.80
16.46
13.38
9.45
4.98
0.59
-3.13
-5.91
-7.89
-9.51
-11.28
-13.57
-16.64
-20.63
-25.58
-31.29
-37.17
-42.19
-45.06
-44.72
-40.78
-33.77
-24.90
-15.64
-7.12
0.20
6.45
12.03
17.24
21.97
25.80
28.26
29.18
28.83
27.94
27.26
27.24
27.82
28.41
28.33
27.12
24.87
22.10
19.50
17.52
16.12
14.86
13.14
10.58
7.20
3.43
-0.15
-3.03
-5.05
-6.45
-7.79
-9.82
-13.17
-18.12
-24.43
-31.34
-37.76
-42.56
-44.81
-44.07
-40.40
-34.27
-26.38
-17.55
-8.51
0.14
7.98
14.78
20.51
25.20
28.86
31.47
33.02
33.54
33.25
32.41
31.35
30.28
29.29
28.36
27.45
26.47
25.35
23.99
22.27
20.13
17.58
14.79
11.91
9.08
6.30
3.47
0.46
-2.77
-6.20
-9.76
-13.49
-17.55
-22.24
-27.78
-34.10
-40.73
-46.76
-51.08
-52.67
-50.90
-45.78
-37.93
-28.37
-18.34
-8.85
-0.60
6.07
11.00
14.24
15.94
16.52
16.66
17.15
18.55
20.78
22.98
23.85
22.30
18.13
12.32
6.55
2.54
1.29
2.77
6.23
10.68
15.36
19.88
24.14
28.09
31.51
34.06
35.32
34.94
32.78
28.87
23.29
16.11
7.41
-2.59
-13.32
-23.73
-32.37
-37.84
-39.34
-37.09
-32.21
-26.26
-20.40
-14.98
-9.63
-3.85
2.34
8.12
12.31
13.95
13.05
10.66
8.40
7.65
8.82
11.30
13.78
15.05
14.67
13.02
11.02
9.49
8.76
8.47
7.87
6.28
3.42
-0.41
-4.57
-8.35
-11.33
-13.52
-15.27
-17.07
-19.33
-22.27
-25.93
-30.25
-35.06
-40.02
-44.46
-47.49
-48.18
-45.93
-40.74
-33.31
-24.78
-16.22
-8.38
-1.48
4.59
9.94
14.45
17.83
19.80
20.37
19.94
19.15
18.61
18.64
19.09
19.50
19.31
18.18
16.16
13.66
11.20
9.19
7.77
6.72
5.61
4.05
1.85
-0.89
-3.82
-6.50
-8.74
-10.64
-12.61
-15.21
-18.84
-23.58
-29.21
-35.24
-41.10
-46.17
-49.86
-51.54
-50.66
-46.93
-40.47
-31.87
-22.09
-12.11
-2.72
5.71
13.14
19.63
25.17
29.57
32.60
34.15
34.33
33.54
32.29
31.00
29.89
28.93
27.90
26.61
25.02
23.26
21.60
20.22
19.16
18.20
17.00
15.28
12.92
10.07
7.07
4.29
1.85
-0.44
-3.00
-6.31
-10.62
-15.90
-21.80
-27.80
-33.29
-37.65
-40.26
-40.54
-38.18
-33.23
-26.24
-18.15
-9.99
-2.47
4.12
9.93
15.27
20.25
24.71
28.29
30.74
32.14
32.91
33.62
34.60
35.78
36.73
36.99
36.36
35.05
33.56
32.31
31.40
30.51
29.21
27.09
24.13
20.59
16.91
13.42
10.21
7.15
3.92
0.23
-4.20
-9.46
-15.55
-22.33
-29.39
-36.09
-41.42
-44.24
-43.56
-39.06
-31.34
-21.80
-12.13
-3.61
3.28
8.92
13.89
18.42
22.15
24.49
25.03
24.11
22.67
21.70
21.75
22.55
23.39
23.55
22.85
21.66
20.53
19.83
19.45
18.94
17.84
15.94
13.31
10.14
6.52
2.42
-2.18
-7.15
-12.16
-16.77
-20.75
-24.18
-27.55
-31.43
-36.22
-41.83
-47.56
-52.31
-54.86
-54.38
-50.57
-43.82
-35.05
-25.41
-15.98
-7.56
-0.54
5.01
9.16
12.05
13.79
14.45
14.18
13.38
12.59
12.40
13.14
14.61
16.12
16.74
15.77
13.08
9.24
5.09
1.35
-1.75
-4.57
-7.59
-11.04
-14.62
-17.67
-19.61
-20.32
-20.39
-20.85
-22.74
-26.63
-32.39
-39.23
-45.92
-51.20
-54.05
-53.88
-50.61
-44.64
-36.72
-27.81
-18.86
-10.66
-3.82
1.33
4.64
6.23
6.56
6.44
6.87
8.72
12.35
17.41
22.91
27.75
31.20
33.33
34.75
36.25
38.05
39.58
39.71
37.30
31.95
24.26
15.60
7.46
0.78
-4.39
-8.77
-13.34
-18.78
-25.23
-32.33
-39.45
-45.97
-51.32
-54.94
-56.16
-54.30
-48.95
-40.19
-28.84
-16.24
-3.91
6.97
15.77
22.41
27.13
30.19
31.77
31.97
31.02
29.32
27.45
26.00
25.33
25.47
26.11
26.76
26.88
26.16
24.60
22.51
20.36
18.48
16.93
15.40
13.46
10.83
7.58
4.16
1.11
-1.27
-3.23
-5.47
-8.85
-13.88
-20.40
-27.49
-33.79
-37.96
-39.08
-36.93
-31.90
-24.86
-16.82
-8.67
-1.01
5.84
11.76
16.69
20.58
23.37
25.12
26.06
26.56
26.94
27.33
27.63
27.63
27.14
26.24
25.22
24.42
24.06
24.05
24.14
24.00
23.41
22.26
20.55
18.31
15.63
12.67
9.63
6.76
4.04
1.24
-2.17
-6.77
-12.90
-20.36
-28.35
-35.56
-40.53
-42.15
-40.00
-34.43
-26.48
-17.45
-8.50
-0.38
6.61
12.47
17.28
21.01
23.58
24.88
24.95
24.00
22.41
20.67
19.23
18.42
18.30
18.69
19.25
19.70
19.87
19.74
19.31
18.39
16.66
13.80
9.72
4.70
-0.64
-5.65
-9.92
-13.39
-16.39
-19.46
-23.10
-27.59
-32.84
-38.23
-42.76
-45.34
-45.13
-42.00
-36.48
-29.59
-22.36
-15.43
-8.99
-2.94
2.75
7.86
12.03
14.95
16.59
17.20
17.20
16.95
16.70
16.54
16.54
16.68
16.85
16.87
16.52
15.62
14.07
11.89
9.20
6.13
2.79
-0.69
-4.18
-7.55
-10.73
-13.73
-16.66
-19.66
-22.89
-26.43
-30.42
-34.85
-39.58
-44.13
-47.66
-49.18
-47.86
-43.41
-36.21
-27.25
-17.66
-8.35
0.23
8.01
14.95
20.88
25.37
28.02
28.66
27.61
25.61
23.55
22.16
21.66
21.85
22.15
22.03
21.13
19.46
17.29
14.87
12.33
9.57
6.42
2.77
-1.25
-5.34
-9.16
-12.51
-15.49
-18.32
-21.41
-25.09
-29.64
-35.11
-41.30
-47.68
-53.37
-57.35
-58.70
-56.94
-52.18
-45.16
-36.85
-28.17
-19.75
-11.81
-4.44
2.30
8.10
12.55
15.33
16.58
16.92
17.40
19.01
22.11
26.19
30.10
32.68
33.42
32.74
31.74
31.55
32.71
34.83
36.87
37.64
36.16
32.08
25.56
17.17
7.78
-1.51
-9.66
-15.96
-20.33
-23.46
-26.47
-30.44
-35.69
-41.54
-46.30
-47.85
-44.28
-34.69
-19.61
-0.97
18.30
35.09
47.01
53.05
53.66
50.37
45.08
39.30
33.83
28.91
24.52
20.88
18.39
17.44
18.01
19.45
20.80
21.27
20.69
19.57
18.79
18.92
19.85
20.77
20.61
18.69
15.10
10.64
6.31
2.88
0.39
-1.69
-4.15
-7.67
-12.63
-19.04
-26.63
-34.88
-42.98
-49.76
-53.93
-54.43
-50.88
-43.81
-34.56
-24.77
-15.82
-8.37
-2.40
2.59
7.09
11.20
14.71
17.15
18.24
17.98
16.75
15.07
13.36
11.78
10.12
8.08
5.49
2.52
-0.34
-2.49
-3.66
-4.08
-4.48
-5.68
-8.11
-11.58
-15.41
-18.75
-21.17
-22.73
-23.91
-25.20
-26.90
-29.06
-31.71
-34.99
-38.97
-43.41
-47.49
-49.89
-49.35
-45.22
-37.82
-28.34
-18.28
-8.79
-0.43
6.74
12.74
17.46
20.68
22.39
23.08
23.66
25.12
27.98
32.07
36.64
40.74
43.70
45.35
45.89
45.63
44.66
42.90
40.16
36.43
31.91
26.94
21.78
16.50
10.93
4.84
-1.84
-8.92
-16.01
-22.79
-29.09
-34.94
-40.31
-44.88
-47.96
-48.69
-46.42
-41.12
-33.45
-24.55
-15.53
-7.22
0.06
6.28
11.43
15.38
17.96
19.07
18.92
18.04
17.09
16.71
17.23
18.56
20.20
21.50
21.86
21.05
19.33
17.28
15.50
14.17
12.93
11.00
7.68
2.77
-3.16
-9.07
-13.97
-17.42
-19.78
-21.99
-25.06
-29.56
-35.30
-41.45
-46.82
-50.29
-51.14
-49.19
-44.73
-38.35
-30.74
-22.50
-14.18
-6.19
1.06
7.21
12.01
15.44
17.74
19.28
20.50
21.70
22.96
24.22
25.33
26.14
26.57
26.59
26.24
25.60
24.76
23.76
22.59
21.11
19.14
16.57
13.41
9.81
6.07
2.52
-0.58
-3.12
-5.19
-7.08
-9.21
-12.01
-15.82
-20.71
-26.33
-31.85
-36.11
-37.96
-36.64
-32.17
-25.32
-17.34
-9.41
-2.25
4.00
9.60
14.74
19.35
23.04
25.45
26.56
26.80
26.87
27.34
28.38
29.69
30.73
31.02
30.40
29.04
27.27
25.41
23.57
21.71
19.70
17.49
15.19
12.92
10.78
8.72
6.65
4.48
2.17
-0.30
-3.03
-6.21
-10.13
-14.96
-20.57
-26.33
-31.17
-33.92
-33.65
-30.10
-23.77
-15.81
-7.58
-0.27
5.48
9.63
12.57
14.86
16.81
18.42
19.46
19.75
19.38
18.76
18.51
19.03
20.37
22.08
23.52
24.19
24.03
23.42
22.87
22.67
22.61
22.07
20.37
17.16
12.70
7.73
3.12
-0.58
-3.35
-5.66
-8.15
-11.34
-15.43
-20.31
-25.67
-30.99
-35.61
-38.79
-39.77
-38.02
-33.43
-26.49
-18.11
-9.47
-1.61
4.84
9.74
13.34
15.97
17.85
18.93
19.06
18.22
16.68
15.03
13.93
13.79
14.53
15.70
16.72
17.25
17.32
17.16
16.93
16.52
15.59
13.75
10.94
7.46
3.89
0.82
-1.44
-2.98
-4.28
-6.01
-8.89
-13.46
-19.91
-27.90
-36.50
-44.39
-50.06
-52.34
-50.71
-45.48
-37.68
-28.67
-19.74
-11.72
-4.97
0.55
5.02
8.55
11.17
12.92
13.99
14.70
15.45
16.44
17.55
18.36
18.42
17.48
15.68
13.55
11.61
10.22
9.27
8.39
7.09
5.07
2.36
-0.76
-3.92
-6.86
-9.56
-12.10
-14.66
-17.26
-19.87
-22.47
-25.17
-28.25
-31.87
-35.86
-39.50
-41.71
-41.46
-38.27
-32.45
-25.05
-17.32
-10.25
-4.25
0.80
5.19
9.12
12.53
15.27
17.30
18.78
20.03
21.30
22.67
23.90
24.70
24.82
24.35
23.60
23.02
22.90
23.10
23.10
22.09
19.42
14.97
9.25
3.25
-1.97
-5.77
-8.13
-9.60
-10.89
-12.55
-14.74
-17.38
-20.31
-23.51
-26.95
-30.49
-33.62
-35.55
-35.51
-33.04
-28.32
-21.99
-14.97
-8.02
-1.56
4.32
9.67
14.44
18.44
21.38
23.17
23.95
24.19
24.42
24.97
25.82
26.65
27.01
26.61
25.52
24.09
22.69
21.57
20.60
19.46
17.80
15.45
12.52
9.38
6.47
4.09
2.32
0.90
-0.62
-2.76
-5.91
-10.26
-15.67
-21.72
-27.70
-32.68
-35.80
-36.37
-34.19
-29.63
-23.49
-16.78
-10.28
-4.38
0.98
6.02
10.92
15.54
19.53
22.54
24.45
25.48
26.09
26.78
27.77
28.97
29.92
30.04
28.97
26.67
23.55
20.24
17.32
15.04
13.21
11.38
9.09
6.16
2.81
-0.41
-2.94
-4.50
-5.17
-5.43
-5.90
-7.15
-9.48
-12.88
-16.95
-21.04
-24.38
-26.30
-26.39
-24.69
-21.59
-17.71
-13.70
-9.98
-6.71
-3.76
-0.94
1.92
4.81
7.56
9.97
11.95
13.53
14.93
16.31
17.67
18.75
19.19
18.71
17.39
15.67
14.15
13.27
13.03
12.96
12.35
10.63
7.62
3.58
-0.94
-5.40
-9.47
-13.02
-16.12
-18.90
-21.52
-24.11
-26.89
-30.07
-33.76
-37.76
-41.48
-43.97
-44.20
-41.52
-35.88
-28.01
-19.10
-10.36
-2.67
3.56
8.28
11.50
13.17
13.19
11.68
9.19
6.63
4.99
4.98
6.63
9.36
12.21
14.27
15.03
14.53
13.20
11.61
10.14
8.77
7.19
5.02
2.07
-1.47
-5.13
-8.34
-10.80
-12.51
-13.89
-15.45
-17.64
-20.68
-24.54
-29.02
-33.82
-38.58
-42.79
-45.80
-46.97
-45.77
-42.06
-36.16
-28.81
-20.92
-13.24
-6.21
0.07
5.67
10.64
14.81
17.87
19.55
19.81
19.08
18.08
17.57
17.95
19.02
20.04
20.15
18.85
16.36
13.60
11.67
11.31
12.48
14.45
16.13
16.63
15.52
12.93
9.39
5.54
1.96
-1.07
-3.62
-6.07
-8.98
-12.76
-17.55
-23.01
-28.47
-33.02
-35.85
-36.38
-34.37
-29.95
-23.57
-15.92
-7.70
0.40
7.94
14.56
20.05
24.17
26.68
27.58
27.12
25.86
24.36
23.03
21.95
20.98
19.98
18.88
17.75
16.66
15.56
14.32
12.80
11.03
9.15
7.38
5.81
4.34
2.74
0.89
-1.12
-2.97
-4.36
-5.23
-5.86
-6.77
-8.45
-11.16
-14.86
-19.35
-24.36
-29.54
-34.46
-38.40
-40.48
-39.88
-36.27
-29.99
-22.01
-13.57
-5.67
1.22
7.18
12.50
17.39
21.76
25.28
27.63
28.72
28.83
28.43
28.07
28.10
28.58
29.28
29.80
29.77
29.00
27.58
25.83
24.14
22.76
21.66
20.55
19.06
16.84
13.79
10.05
5.92
1.80
-1.94
-5.05
-7.45
-9.28
-10.87
-12.70
-15.34
-19.15
-24.17
-29.97
-35.58
-39.73
-41.21
-39.31
-34.04
-26.22
-17.11
-8.04
0.06
6.75
11.97
15.75
18.16
19.29
19.43
19.08
18.89
19.31
20.48
22.04
23.37
23.77
22.86
20.68
17.64
14.40
11.49
9.25
7.58
6.09
4.28
1.82
-1.32
-4.90
-8.53
-11.99
-15.21
-18.26
-21.27
-24.28
-27.39
-30.74
-34.53
-38.90
-43.70
-48.33
-51.90
-53.49
-52.66
-49.53
-44.76
-39.15
-33.22
-27.12
-20.66
-13.80
-6.86
-0.61
3.92
5.92
5.14
2.08
-2.03
-5.61
-7.17
-5.87
-1.79
4.07
10.18
15.16
18.30
19.80
20.61
21.83
24.11
27.38
30.90
33.67
34.87
34.02
31.09
26.26
19.96
12.84
5.71
-0.63
-5.66
-9.37
-12.23
-14.80
-17.43
-19.93
-21.88
-22.81
-22.62
-21.58
-20.08
-18.27
-15.89
-12.55
-8.01
-2.64
2.69
6.90
9.31
9.87
9.17
8.03
7.11
6.69
6.64
6.70
6.66
6.44
6.05
5.42
4.41
2.82
0.54
-2.31
-5.47
-8.59
-11.48
-14.09
-16.56
-19.03
-21.53
-24.01
-26.38
-28.65
-30.93
-33.35
-35.82
-37.77
-38.27
-36.30
-31.26
-23.30
-13.48
-3.28
5.92
13.39
19.17
23.77
27.71
31.15
33.83
35.34
35.51
34.60
33.23
32.11
31.55
31.43
31.17
30.15
28.08
25.21
22.19
19.74
18.24
17.50
16.87
15.65
13.34
9.94
5.86
1.73
-1.89
-4.74
-6.88
-8.66
-10.59
-13.14
-16.54
-20.67
-25.01
-28.79
-31.24
-31.81
-30.30
-26.83
-21.78
-15.60
-8.82
-1.99
4.30
9.56
13.46
15.99
17.38
17.97
18.08
17.90
17.53
17.04
16.50
16.03
15.64
15.20
14.50
13.39
11.87
10.12
8.39
6.74
5.08
3.04
0.28
-3.28
-7.41
-11.61
-15.36
-18.28
-20.30
-21.63
-22.73
-24.10
-26.17
-29.11
-32.62
-36.03
-38.38
-38.76
-36.67
-32.27
-26.40
-20.36
-15.47
-12.59
-11.83
-12.56
-13.76
-14.44
-13.98
-12.22
-9.39
-5.80
-1.61
3.13
8.46
14.22
19.98
25.18
29.29
32.15
33.94
35.12
36.09
37.01
37.64
37.46
35.96
32.87
28.40
23.15
17.88
13.23
9.45
6.33
3.31
-0.27
-4.94
-10.74
-17.16
-23.16
-27.51
-29.23
-27.97
-24.17
-18.81
-12.89
-7.08
-1.47
4.22
10.24
16.48
22.41
27.28
30.54
32.09
32.32
31.82
31.14
30.52
29.86
28.96
27.65
26.00
24.33
23.02
22.30
21.98
21.55
20.29
17.67
13.63
8.66
3.59
-0.77
-4.01
-6.31
-8.30
-10.78
-14.32
-19.05
-24.64
-30.41
-35.54
-39.30
-41.18
-40.97
-38.73
-34.74
-29.37
-23.00
-16.03
-8.88
-2.04
3.97
8.73
12.05
14.05
15.11
15.68
16.14
16.72
17.50
18.50
19.63
20.75
21.64
22.03
21.73
20.71
19.01
16.81
14.24
11.44
8.54
5.68
2.99
0.58
-1.53
-3.35
-4.97
-6.49
-8.19
-10.38
-13.44
-17.54
-22.39
-27.11
-30.48
-31.37
-29.25
-24.47
-18.02
-11.18
-4.90
0.46
5.16
9.64
14.20
18.66
22.44
25.00
26.17
26.32
26.24
26.66
27.81
29.30
30.38
30.39
29.20
27.28
25.41
24.18
23.60
23.10
21.82
19.15
15.01
9.94
4.79
0.29
-3.18
-5.72
-7.74
-9.74
-12.09
-14.90
-18.25
-22.13
-26.51
-31.13
-35.36
-38.21
-38.65
-36.08
-30.65
-23.30
-15.34
-7.95
-1.68
3.54
8.19
12.65
16.95
20.79
23.67
25.34
25.83
25.55
25.05
24.77
24.88
25.26
25.56
25.41
24.69
23.47
22.07
20.81
19.71
18.51
16.75
14.06
10.46
6.43
2.69
-0.18
-2.05
-3.40
-5.04
-7.71
-11.65
-16.60
-21.91
-26.92
-31.20
-34.45
-36.44
-36.82
-35.27
-31.63
-26.13
-19.36
-12.10
-5.07
1.27
6.70
11.12
14.43
16.50
17.37
17.26
16.67
16.14
16.14
16.81
17.96
19.19
20.05
20.29
19.94
19.32
18.84
18.75
18.92
18.90
18.10
16.05
12.70
8.44
3.95
-0.16
-3.55
-6.30
-8.81
-11.51
-14.68
-18.40
-22.55
-26.90
-31.12
-34.79
-37.37
-38.31
-37.25
-34.12
-29.27
-23.32
-16.95
-10.70
-4.92
0.28
4.85
8.71
11.77
13.95
15.32
16.03
16.37
16.60
16.88
17.21
17.45
17.32
16.56
15.00
12.67
9.81
6.82
4.10
1.90
0.19
-1.26
-2.76
-4.49
-6.41
-8.32
-9.93
-11.08
-11.86
-12.61
-13.85
-16.10
-19.61
-24.27
-29.52
-34.49
-38.26
-40.11
-39.77
-37.41
-33.49
-28.59
-23.12
-17.37
-11.53
-5.84
-0.58
3.93
7.47
10.04
11.81
13.08
14.13
15.09
15.86
16.23
16.02
15.21
14.00
12.73
11.67
10.84
10.04
8.91
7.16
4.73
1.82
-1.20
-3.94
-6.14
-7.82
-9.15
-10.44
-12.01
-14.04
-16.64
-19.74
-23.20
-26.71
-29.89
-32.21
-33.08
-32.00
-28.75
-23.57
-17.11
-10.23
-3.69
2.06
6.99
11.24
14.89
17.83
19.85
20.84
21.03
20.90
20.95
21.45
22.30
23.06
23.32
22.84
21.68
20.13
18.46
16.90
15.44
13.94
12.14
9.82
6.83
3.23
-0.65
-4.38
-7.57
-10.12
-12.25
-14.39
-16.94
-20.05
-23.59
-27.21
-30.51
-33.05
-34.46
-34.39
-32.66
-29.30
-24.57
-19.00
-13.06
-7.19
-1.69
3.29
7.64
11.28
14.09
16.13
17.50
18.47
19.30
20.29
21.59
23.13
24.63
25.60
25.59
24.35
22.03
19.09
16.07
13.37
11.07
8.97
6.82
4.40
1.72
-1.11
-3.92
-6.57
-8.95
-11.02
-12.88
-14.76
-17.06
-20.08
-23.81
-27.69
-30.78
-32.03
-30.81
-27.22
-22.01
-16.13
-10.33
-4.88
0.37
5.56
10.53
14.78
17.64
18.82
18.57
17.66
17.01
17.27
18.52
20.33
22.03
22.99
22.98
22.22
21.17
20.22
19.52
18.72
17.29
14.74
11.01
6.55
2.15
-1.48
-4.04
-5.72
-7.13
-8.89
-11.37
-14.59
-18.36
-22.44
-26.60
-30.62
-34.05
-36.25
-36.53
-34.46
-30.16
-24.32
-17.98
-12.03
-6.88
-2.41
1.77
5.86
9.66
12.61
14.19
14.35
13.59
12.80
12.69
13.48
14.81
16.02
16.53
16.19
15.27
14.22
13.40
12.80
12.01
10.49
7.81
3.90
-0.81
-5.61
-9.76
-12.75
-14.62
-15.82
-17.05
-18.94
-21.89
-25.79
-30.24
-34.54
-37.95
-39.86
-39.91
-38.04
-34.46
-29.51
-23.52
-16.76
-9.47
-1.97
5.32
11.82
16.92
20.27
21.86
22.08
21.60
21.06
20.93
21.34
22.17
23.17
24.19
25.24
26.41
27.74
28.97
29.60
29.05
26.88
23.09
18.13
12.68
7.47
3.03
-0.37
-2.67
-4.08
-5.11
-6.58
-9.50
-14.67
-22.12
-30.90
-39.13
-44.82
-46.58
-44.30
-39.05
-32.53
-26.18
-20.67
-15.83
-11.07
-6.00
-0.78
3.97
7.62
9.99
11.51
12.98
15.13
18.11
21.44
24.20
25.63
25.58
24.58
23.52
23.19
23.70
24.51
24.68
23.42
20.53
16.40
11.90
7.82
4.68
2.49
0.90
-0.59
-2.49
-5.18
-8.88
-13.60
-19.16
-25.02
-30.47
-34.60
-36.65
-36.17
-33.22
-28.33
-22.22
-15.56
-8.63
-1.42
6.30
14.60
23.10
31.11
37.71
42.30
44.80
45.68
45.73
45.61
45.60
45.52
44.99
43.65
41.44
38.54
35.35
32.22
29.31
26.58
23.73
20.39
16.33
11.53
6.32
1.18
-3.45
-7.42
-10.92
-14.48
-18.63
-23.69
-29.70
-36.41
-43.44
-50.28
-56.37
-60.99
-63.31
-62.67
-58.78
-51.98
-43.14
-33.43
-23.91
-15.27
-7.76
-1.32
4.14
8.68
12.25
14.96
16.99
18.68
20.30
21.88
23.18
23.81
23.51
22.17
20.07
17.61
15.26
13.30
11.76
10.47
9.03
7.16
4.66
1.69
-1.36
-4.04
-6.02
-7.35
-8.39
-9.69
-11.68
-14.57
-18.32
-22.70
-27.45
-32.17
-36.35
-39.34
-40.52
-39.42
-35.99
-30.62
-24.03
-17.01
-10.21
-3.99
1.55
6.39
10.52
13.84
16.21
17.60
18.07
17.97
17.71
17.69
18.09
18.75
19.36
19.54
19.10
18.07
16.65
15.03
13.28
11.32
9.00
6.26
3.18
-0.02
-3.08
-5.70
-7.76
-9.36
-10.78
-12.51
-15.10
-18.97
-24.05
-29.71
-34.79
-38.03
-38.55
-36.20
-31.63
-25.92
-20.06
-14.54
-9.33
-4.08
1.51
7.32
12.86
17.46
20.60
22.19
22.60
22.43
22.24
22.29
22.50
22.64
22.56
22.33
22.25
22.53
23.14
23.56
23.05
20.94
16.97
11.56
5.54
-0.12
-4.69
-7.92
-10.03
-11.51
-12.98
-14.92
-17.65
-21.26
-25.66
-30.48
-35.14
-38.75
-40.32
-39.02
-34.58
-27.47
-18.87
-10.23
-2.73
3.07
7.29
10.36
12.64
14.14
14.73
14.33
13.23
12.04
11.38
11.61
12.62
13.88
14.79
14.91
14.13
12.72
11.13
9.80
8.90
8.27
7.43
5.87
3.31
-0.12
-3.88
-7.29
-9.89
-11.68
-13.11
-14.86
-17.51
-21.29
-25.89
-30.59
-34.36
-36.27
-35.75
-32.77
-27.86
-21.80
-15.30
-8.77
-2.40
3.73
9.39
14.15
17.65
19.70
20.52
20.57
20.43
20.37
20.42
20.41
20.18
19.74
19.16
18.55
17.84
16.83
15.29
13.07
10.19
6.81
3.18
-0.44
-3.84
-6.86
-9.44
-11.61
-13.53
-15.43
-17.65
-20.39
-23.85
-27.98
-32.48
-36.79
-40.05
-41.33
-39.82
-35.24
-27.85
-18.57
-8.66
0.68
8.56
14.58
18.78
21.47
23.03
23.77
23.87
23.39
22.42
21.08
19.58
18.10
16.73
15.46
14.21
13.02
12.00
11.33
11.06
11.01
10.76
9.87
8.10
5.54
2.62
-0.13
-2.26
-3.62
-4.39
-5.01
-6.09
-8.21
-11.78
-16.84
-22.97
-29.25
-34.47
-37.48
-37.46
-34.23
-28.20
-20.26
-11.46
-2.77
5.08
11.62
16.60
20.00
21.88
22.47
22.13
21.34
20.59
20.22
20.33
20.74
21.16
21.25
20.84
19.94
18.67
17.19
15.64
14.12
12.61
11.09
9.44
7.58
5.48
3.22
0.98
-1.16
-3.26
-5.60
-8.53
-12.31
-16.95
-22.14
-27.30
-31.73
-34.70
-35.63
-34.19
-30.38
-24.66
-17.73
-10.41
-3.42
2.82
8.03
12.02
14.63
15.76
15.50
14.17
12.34
10.58
9.28
8.61
8.59
9.15
10.22
11.70
13.36
14.89
15.89
16.04
15.20
13.43
11.01
8.24
5.41
2.71
0.19
-2.16
-4.40
-6.63
-9.03
-11.84
-15.42
-20.01
-25.50
-31.26
-36.19
-39.07
-38.98
-35.80
-30.17
-23.23
-16.09
-9.47
-3.54
1.90
7.06
11.94
16.16
19.25
20.82
20.80
19.50
17.46
15.29
13.40
11.95
10.79
9.62
8.25
6.71
5.26
4.23
3.81
3.85
3.99
3.82
3.16
2.11
0.85
-0.59
-2.52
-5.38
-9.55
-15.00
-21.27
-27.66
-33.42
-37.89
-40.54
-40.97
-38.90
-34.40
-27.92
-20.22
-12.22
-4.69
1.91
7.43
11.91
15.40
17.97
19.64
20.50
20.66
20.28
19.50
18.52
17.53
16.81
16.57
16.85
17.56
18.39
18.92
18.67
17.30
14.71
11.15
7.21
3.51
0.50
-1.80
-3.72
-5.76
-8.24
-11.19
-14.51
-18.15
-22.26
-26.96
-32.12
-36.97
-40.27
-40.72
-37.62
-31.21
-22.65
-13.55
-5.29
1.44
6.69
11.04
14.93
18.48
21.40
23.24
23.87
23.61
23.19
23.31
24.26
25.65
26.62
26.39
24.72
22.16
19.66
18.07
17.52
17.43
16.84
15.03
11.82
7.65
3.22
-0.91
-4.51
-7.69
-10.64
-13.51
-16.37
-19.30
-22.52
-26.20
-30.31
-34.41
-37.67
-39.09
-37.95
-34.13
-28.17
-21.02
-13.64
-6.65
-0.27
5.55
10.85
15.50
19.18
21.71
23.14
23.84
24.35
25.10
26.29
27.77
29.11
29.84
29.56
28.18
25.90
23.20
20.58
18.40
16.63
14.95
12.92
10.22
6.90
3.33
-0.03
-2.91
-5.38
-7.70
-10.18
-12.99
-16.16
-19.64
-23.37
-27.21
-30.82
-33.54
-34.60
-33.35
-29.61
-23.86
-17.11
-10.53
-4.95
-0.59
2.91
6.20
9.67
13.36
16.84
19.57
21.14
21.58
21.17
20.33
19.39
18.44
17.50
16.61
15.89
15.53
15.57
15.83
15.95
15.56
14.39
12.45
9.94
7.18
4.45
1.92
-0.47
-2.94
-5.92
-9.87
-15.02
-21.19
-27.59
-33.03
-36.24
-36.37
-33.38
-27.93
-21.13
-14.00
-7.21
-0.97
4.78
10.04
14.63
18.19
20.43
21.29
21.05
20.24
19.39
18.88
18.81
18.97
19.01
