1676916053.00
64.000000
-0.00
-0.00
-0.00
-0.00
-0.00
-0.00
-0.00
-0.00
-0.00
-0.00
0.00
0.01
0.01
-0.00
-0.03
-0.05
-0.05
0.00
0.13
0.36
0.66
1.01
1.37
1.72
2.06
2.40
2.79
3.24
3.80
4.42
5.06
5.66
6.20
6.68
7.15
7.68
8.31
9.14
10.09
11.04
11.88
12.56
13.14
13.76
14.65
15.96
17.91
20.32
22.90
25.38
27.58
29.57
31.68
34.32
37.81
42.54
48.15
54.10
59.83
64.97
69.58
74.14
79.34
85.71
93.76
103.00
112.62
121.73
129.77
136.75
143.30
150.75
157.77
166.64
177.95
191.79
206.97
220.57
228.25
225.36
208.53
176.87
132.76
80.05
23.07
-34.94
-92.44
-149.16
-205.23
-260.37
-313.74
-363.87
-409.83
-450.91
-486.50
-515.74
-537.23
-549.22
-549.96
-538.37
-514.21
-478.67
-433.88
-382.45
-327.02
-269.84
-212.63
-156.66
-102.95
-52.37
-5.90
35.58
71.43
101.35
125.50
144.38
158.69
169.15
176.37
180.75
182.57
182.07
179.51
175.23
169.65
163.18
156.15
148.81
141.30
133.69
126.02
118.33
110.69
103.16
95.80
88.68
81.83
75.25
68.95
62.95
57.25
51.86
46.78
42.03
37.59
33.45
29.61
26.07
22.81
19.83
17.11
14.67
12.48
10.54
8.83
7.35
6.07
4.97
4.05
3.27
2.62
2.09
1.65
1.30
1.01
0.79
0.61
0.47
0.37
0.28
0.22
0.18
0.15
0.13
0.12
0.12
0.12
0.14
0.16
0.18
0.22
0.25
0.29
0.33
0.38
0.42
0.46
0.51
0.56
0.61
0.67
0.72
0.79
0.85
0.93
1.01
1.10
1.20
1.31
1.43
1.57
1.73
1.91
2.10
2.32
2.55
2.82
3.11
3.43
3.78
4.17
4.59
5.04
5.54
6.06
6.63
7.24
7.90
8.59
9.33
10.12
10.95
11.83
12.75
13.72
14.75
15.85
17.00
18.22
19.48
20.75
21.98
23.09
24.01
24.59
24.75
24.35
23.33
21.60
19.13
15.97
12.14
7.82
3.20
-1.51
-6.08
-10.29
-13.97
-17.01
-19.35
-20.99
-21.94
-22.28
-22.08
-21.45
-20.49
-19.32
-18.07
-16.85
-15.73
-14.69
-13.76
-12.86
-11.93
-10.94
-9.90
-8.90
-8.06
-7.43
-6.98
-6.74
-6.58
-6.36
-6.02
-5.62
-5.36
-5.43
-5.94
-6.79
-8.02
-9.43
-10.73
-11.82
-12.80
-13.99
-15.73
-18.20
-21.25
-24.97
-29.09
-33.22
-37.14
-40.88
-44.68
-48.90
-54.00
-60.46
-69.40
-81.11
-94.85
-108.81
-120.53
-127.79
-129.49
-126.25
-115.59
-98.62
-77.21
-53.12
-27.80
-2.56
21.10
41.52
57.20
67.36
71.59
70.67
66.07
59.26
51.41
43.32
35.55
28.63
23.12
18.94
16.06
14.22
12.93
11.53
9.36
5.93
1.16
-4.66
-11.28
-18.20
-24.96
-31.33
-37.43
-43.69
-50.69
-59.00
-68.74
-79.59
-90.25
-98.62
-102.21
-98.86
-87.47
-68.49
-43.88
-16.51
10.48
34.53
53.95
67.92
76.25
79.25
77.67
72.71
65.98
59.18
53.77
50.56
49.65
50.47
52.15
53.85
54.97
55.22
54.49
52.74
49.81
45.46
39.50
31.99
23.35
14.24
5.44
-2.53
-9.62
-16.25
-23.17
-31.22
-40.91
-52.20
-64.25
-75.36
-83.19
-85.27
-79.68
-65.73
-44.37
-18.04
10.00
36.53
59.15
76.52
88.24
94.54
95.97
93.27
87.55
80.25
73.02
67.35
64.15
63.47
64.53
66.11
67.00
66.40
64.16
60.62
56.45
52.22
48.15
44.06
39.44
33.76
26.73
18.48
9.56
0.75
-7.23
-13.98
-19.53
-24.34
-29.11
-34.61
-41.42
-49.70
-58.93
-67.84
-74.55
-76.96
-73.40
-63.10
-46.56
-25.44
-2.08
20.97
41.47
57.74
68.80
74.26
74.36
69.93
62.41
53.60
45.36
39.18
35.82
35.20
36.54
38.71
40.66
41.72
41.70
40.74
39.12
37.04
34.45
31.12
26.79
21.28
14.65
7.21
-0.56
-8.20
-15.37
-21.98
-28.10
-33.98
-39.96
-46.34
-53.21
-60.22
-66.32
-69.91
-69.13
-62.56
-49.81
-31.86
-10.85
10.52
29.74
45.05
55.53
61.01
61.75
58.36
51.80
43.35
34.58
27.02
21.83
19.49
19.68
21.49
23.80
25.63
26.49
26.31
25.30
23.63
21.28
18.04
13.65
8.07
1.57
-5.34
-12.10
-18.32
-23.95
-29.32
-35.04
-41.81
-50.06
-59.72
-69.96
-79.13
-85.10
-85.80
-79.86
-67.14
-48.78
-26.97
-4.32
16.69
34.17
46.92
54.50
57.08
55.40
50.56
43.94
36.94
30.76
26.20
23.51
22.46
22.40
22.65
22.69
22.29
21.51
20.51
19.27
17.55
14.96
11.24
6.45
1.04
-4.34
-9.19
-13.37
-17.21
-21.35
-26.39
-32.69
-40.07
-47.72
-54.27
-57.93
-56.99
-50.19
-37.32
-19.36
1.65
23.08
42.35
57.55
67.64
72.51
72.66
68.98
62.52
54.36
45.65
37.43
30.60
25.69
22.79
21.57
21.35
21.35
20.82
19.22
16.28
11.98
6.53
0.26
-6.39
-13.00
-19.24
-24.94
-30.12
-34.98
-39.90
-45.29
-51.48
-58.40
-65.45
-71.35
-74.41
-72.96
-65.94
-53.44
-36.70
-17.87
0.60
16.61
28.82
36.64
40.14
39.78
36.34
30.75
24.12
17.52
11.87
7.71
5.17
4.03
3.86
4.20
4.69
5.04
5.04
4.51
3.36
1.56
-0.86
-3.85
-7.39
-11.54
-16.42
-22.18
-28.94
-36.60
-44.76
-52.61
-58.95
-62.42
-61.79
-56.40
-46.41
-32.84
-17.37
-1.89
11.82
22.48
29.32
32.14
31.15
26.96
20.46
12.78
5.18
-1.25
-5.70
-7.91
-8.15
-7.12
-5.73
-4.75
-4.67
-5.48
-6.79
-7.97
-8.55
-8.35
-7.63
-6.99
-7.21
-8.93
-12.50
-17.85
-24.41
-31.18
-36.79
-39.78
-38.83
-33.26
-23.26
-9.96
4.82
19.06
31.06
39.76
44.76
46.10
44.10
39.18
32.04
23.65
15.25
8.15
3.29
0.96
0.75
1.76
2.95
3.58
3.35
2.35
0.88
-0.75
-2.42
-4.33
-6.91
-10.69
-16.11
-23.25
-31.72
-40.54
-48.30
-53.37
-54.33
-50.27
-41.12
-27.66
-11.39
5.78
21.96
35.55
45.46
51.14
52.55
50.11
44.61
37.19
29.13
21.66
15.70
11.64
9.33
8.24
7.66
7.02
5.99
4.50
2.64
0.51
-1.85
-4.55
-7.77
-11.79
-16.85
-23.10
-30.54
-38.82
-47.13
-54.19
-58.41
-58.27
-52.85
-42.28
-27.74
-11.27
5.00
19.29
30.53
38.31
42.55
43.27
40.53
34.64
26.36
17.00
8.09
0.96
-3.70
-6.01
-6.76
-6.94
-7.39
-8.44
-9.98
-11.66
-13.24
-14.72
-16.37
-18.58
-21.58
-25.45
-30.16
-35.66
-41.78
-48.07
-53.49
-56.51
-55.39
-48.90
-36.86
-20.37
-1.48
17.46
34.43
48.09
57.78
63.33
64.85
62.73
57.64
50.55
42.59
34.88
28.27
23.26
19.94
18.05
17.10
16.42
15.46
13.84
11.55
8.82
6.05
3.51
1.17
-1.31
-4.56
-9.22
-15.64
-23.72
-32.70
-41.28
-47.86
-50.90
-49.35
-42.94
-32.25
-18.64
-3.93
9.95
21.30
28.86
31.96
30.63
25.52
17.78
8.88
0.24
-6.93
-11.88
-14.41
-14.82
-13.75
-11.92
-9.97
-8.29
-6.96
-5.93
-5.08
-4.45
-4.19
-4.62
-6.08
-8.73
-12.36
-16.26
-19.17
-19.55
-16.00
-7.74
4.96
20.72
37.40
52.70
64.76
72.54
75.75
74.64
69.66
61.40
50.64
38.53
26.48
15.92
7.86
2.55
-0.49
-2.22
-3.59
-5.23
-7.28
-9.54
-11.78
-13.99
-16.41
-19.46
-23.60
-29.14
-36.23
-44.73
-54.19
-63.69
-71.92
-77.25
-78.17
-73.71
-63.83
-49.46
-32.29
-14.37
2.36
16.34
26.50
32.24
33.46
30.53
24.42
16.49
8.37
1.53
-3.07
-5.16
-5.20
-4.09
-2.92
-2.46
-3.05
-4.46
-6.21
-7.81
-9.04
-10.10
-11.49
-13.89
-17.86
-23.62
-30.86
-38.60
-45.31
-49.15
-48.40
-42.03
-30.05
-13.64
5.13
23.88
40.38
52.99
60.82
63.61
61.66
55.74
47.00
36.92
27.03
18.68
12.71
9.29
7.94
7.74
7.68
6.95
5.12
2.20
-1.57
-5.80
-10.19
-14.60
-19.09
-23.98
-29.69
-36.57
-44.64
-53.23
-60.93
-65.84
-65.99
-60.13
-48.18
-31.38
-11.94
7.56
24.84
38.22
46.78
50.19
48.72
43.12
34.64
24.89
15.57
8.11
3.30
1.28
1.47
2.98
4.83
6.24
6.76
6.28
4.96
3.08
0.88
-1.57
-4.40
-7.89
-12.35
-17.87
-24.09
-30.08
-34.44
-35.56
-32.14
-23.60
-10.34
6.25
24.18
41.24
55.47
65.42
70.30
69.95
64.83
55.95
44.76
32.99
22.20
13.50
7.34
3.46
1.16
-0.39
-1.82
-3.49
-5.45
-7.65
-10.06
-12.74
-15.83
-19.51
-23.95
-29.20
-35.27
-41.86
-48.37
-53.77
-56.66
-55.68
-49.88
-39.11
-24.26
-7.07
10.34
25.91
38.08
45.93
49.16
47.98
43.02
35.39
26.51
17.95
11.03
6.48
4.24
3.61
3.60
3.38
2.56
1.21
-0.31
-1.69
-2.87
-4.18
-6.23
-9.74
-15.24
-22.80
-31.84
-41.13
-48.96
-53.50
-53.25
-47.44
-36.24
-20.80
-2.96
15.15
31.51
44.51
53.14
57.07
56.50
52.15
45.09
36.63
28.11
20.70
15.11
11.48
9.39
8.12
6.96
5.42
3.45
1.26
-0.86
-2.81
-4.83
-7.38
-11.07
-16.40
-23.62
-32.57
-42.48
-52.06
-59.50
-62.92
-60.84
-52.68
-39.04
-21.53
-2.48
15.68
30.96
42.01
48.28
49.81
47.11
41.02
32.64
23.32
14.44
7.23
2.42
0.10
-0.29
0.25
0.68
0.32
-0.99
-3.01
-5.29
-7.54
-9.78
-12.36
-15.81
-20.63
-27.16
-35.31
-44.45
-53.31
-60.09
-62.81
-59.79
-50.32
-34.93
-15.37
5.85
26.16
43.52
56.68
65.17
68.96
68.28
63.55
55.52
45.37
34.64
24.95
17.53
12.82
10.43
9.34
8.45
6.91
4.41
1.12
-2.57
-6.24
-9.70
-12.91
-16.06
-19.39
-23.25
-27.99
-33.86
-40.77
-48.10
-54.62
-58.62
-58.35
-52.55
-40.96
-24.46
-4.95
15.16
33.59
48.56
59.02
64.60
65.50
62.25
55.76
47.18
37.91
29.34
22.65
18.50
16.90
17.18
18.21
18.82
18.15
15.98
12.67
8.90
5.29
2.05
-1.09
-4.73
-9.47
-15.67
-23.37
-32.23
-41.56
-50.26
-56.82
-59.57
-57.09
-48.76
-35.12
-17.80
0.89
18.66
33.69
44.91
51.86
54.44
52.83
47.47
39.21
29.36
19.55
11.35
5.86
3.42
3.56
5.13
6.72
7.11
5.64
2.35
-2.11
-6.87
-11.22
-14.90
-18.06
-21.20
-24.88
-29.53
-35.41
-42.59
-50.79
-59.18
-66.27
-70.06
-68.55
-60.43
-45.73
-25.89
-3.45
18.73
38.17
53.22
63.10
67.69
67.31
62.65
54.76
45.05
35.15
26.56
20.34
16.85
15.75
16.14
16.93
17.13
16.11
13.70
10.11
5.77
1.13
-3.57
-8.28
-13.13
-18.36
-24.17
-30.74
-38.23
-46.72
-56.10
-65.77
-74.49
-80.38
-81.34
-75.74
-63.06
-44.27
-21.62
1.94
23.61
41.33
53.95
61.12
63.03
60.31
54.00
45.59
36.88
29.53
24.65
22.51
22.54
23.74
25.14
26.15
26.55
26.39
25.67
24.23
21.80
18.20
13.45
7.88
1.99
-3.75
-9.04
-14.02
-19.07
-24.76
-31.61
-39.80
-49.00
-58.27
-66.04
-70.42
-69.62
-62.48
-48.98
-30.39
-9.01
12.43
31.48
46.40
56.39
61.36
61.75
58.29
51.93
43.79
35.12
27.08
20.58
16.08
13.62
12.90
13.42
14.63
16.02
17.14
17.63
17.20
15.62
12.78
8.77
3.87
-1.51
-6.88
-11.90
-16.48
-20.80
-25.31
-30.53
-36.91
-44.54
-52.98
-61.12
-67.22
-69.33
-65.79
-55.87
-40.08
-20.15
1.46
22.16
39.78
52.87
60.68
63.15
60.75
54.53
45.96
36.71
28.34
21.89
17.70
15.50
14.62
14.31
13.96
13.16
11.74
9.63
6.85
3.41
-0.64
-5.24
-10.27
-15.54
-20.81
-25.81
-30.26
-33.89
-36.52
-38.18
-39.12
-39.83
-40.68
-41.57
-41.66
-39.52
-33.59
-23.04
-8.33
8.77
25.79
40.37
51.06
57.48
60.10
59.68
56.88
52.19
46.08
39.17
32.29
26.25
21.57
18.39
16.40
15.09
13.98
12.74
11.25
9.52
7.58
5.36
2.77
-0.34
-4.01
-8.16
-12.65
-17.31
-22.04
-26.90
-32.04
-37.55
-43.29
-48.68
-52.63
-53.73
-50.61
-42.46
-29.41
-12.66
5.76
23.58
38.83
50.29
57.53
60.70
60.22
56.51
50.05
41.43
31.61
21.83
13.42
7.39
4.15
3.41
4.34
5.92
7.30
7.92
7.55
6.21
4.05
1.36
-1.51
-4.14
-6.21
-7.66
-8.84
-10.43
-13.24
-17.72
-23.70
-30.18
-35.57
-38.23
-36.96
-31.44
-22.22
-10.53
2.15
14.34
24.78
32.43
36.50
36.58
32.78
25.87
17.17
8.29
0.68
-4.71
-7.65
-8.56
-8.29
-7.77
-7.75
-8.60
-10.27
-12.41
-14.62
-16.67
-18.62
-20.88
-24.02
-28.61
-34.88
-42.57
-50.76
-57.95
-62.31
-62.20
-56.56
-45.40
-29.74
-11.46
7.29
24.51
38.69
48.88
54.55
55.59
52.24
45.17
35.57
24.93
14.82
6.51
0.64
-2.79
-4.35
-4.89
-5.21
-5.83
-6.84
-8.09
-9.28
-10.25
-11.16
-12.40
-14.57
-18.17
-23.50
-30.40
-38.17
-45.58
-51.05
-52.98
-50.21
-42.44
-30.37
-15.50
0.22
14.93
27.13
35.85
40.55
41.10
37.76
31.31
22.99
14.31
6.71
1.12
-2.17
-3.54
-3.70
-3.44
-3.31
-3.58
-4.25
-5.28
-6.62
-8.34
-10.59
-13.59
-17.61
-22.85
-29.28
-36.49
-43.49
-48.78
-50.73
-48.00
-40.11
-27.62
-12.07
4.41
19.71
32.13
40.53
44.39
43.67
38.88
31.04
21.66
12.41
4.81
-0.31
-2.88
-3.55
-3.28
-2.92
-3.02
-3.74
-5.01
-6.75
-8.91
-11.52
-14.68
-18.46
-23.00
-28.37
-34.50
-40.96
-46.87
-51.01
-52.01
-48.78
-40.91
-28.88
-14.06
1.64
16.15
27.66
34.95
37.51
35.58
30.02
22.20
13.69
5.97
0.14
-3.32
-4.53
-4.08
-2.76
-1.31
-0.31
-0.15
-1.11
-3.30
-6.72
-11.19
-16.47
-22.29
-28.41
-34.54
-40.21
-44.58
-46.55
-44.94
-39.01
-28.76
-15.09
0.38
15.77
29.37
39.95
46.85
49.89
49.33
45.81
40.28
33.94
27.96
23.26
20.22
18.60
17.70
16.64
14.63
11.23
6.43
0.53
-5.85
-11.96
-17.05
-20.63
-22.58
-23.16
-22.83
-21.87
-20.11
-16.87
-11.28
-2.82
8.31
21.03
33.74
44.79
52.99
57.79
59.24
57.68
53.61
47.55
40.17
32.23
24.58
17.98
12.97
9.72
8.13
7.79
8.22
8.94
9.53
9.75
9.49
8.69
7.21
4.86
1.45
-3.01
-8.04
-12.60
-15.33
-14.90
-10.56
-2.48
8.20
19.78
30.40
38.58
43.41
44.62
42.31
36.89
28.97
19.37
9.11
-0.75
-9.33
-16.19
-21.37
-25.30
-28.43
-31.03
-33.09
-34.47
-35.16
-35.47
-36.07
-37.78
-41.29
-46.91
-54.41
-62.84
-70.75
-76.30
-77.71
-73.68
-63.87
-48.98
-30.72
-11.38
6.61
21.24
31.13
35.68
35.15
30.47
23.06
14.45
5.95
-1.60
-7.84
-12.73
-16.34
-18.73
-19.98
-20.29
-20.04
-19.73
-19.89
-20.91
-23.08
-26.65
-31.84
-38.73
-46.95
-55.38
-62.19
-65.22
-62.61
-53.51
-38.48
-19.37
1.17
20.37
35.96
46.47
51.29
50.64
45.36
36.83
26.69
16.56
7.67
0.66
-4.43
-8.00
-10.57
-12.55
-14.16
-15.57
-16.94
-18.58
-20.90
-24.31
-29.19
-35.80
-44.11
-53.61
-63.04
-70.53
-73.84
-71.06
-61.24
-44.85
-23.66
-0.29
22.42
42.04
56.83
65.82
68.72
65.93
58.50
48.14
36.94
26.90
19.44
15.03
13.20
12.87
12.86
12.37
11.08
9.09
6.59
3.70
0.30
-3.87
-9.15
-15.86
-24.28
-34.47
-46.09
-58.01
-68.27
-74.28
-73.51
-64.43
-47.14
-23.59
3.04
29.25
52.22
70.30
82.97
90.37
92.98
91.37
86.32
78.99
70.86
63.43
57.83
54.54
53.31
53.43
54.00
54.23
53.50
51.37
47.59
42.04
34.84
26.30
16.96
7.36
-2.08
-11.13
-19.85
-28.56
-37.76
-47.93
-59.27
-71.31
-82.68
-91.14
-94.06
-89.28
-75.88
-54.67
-28.07
0.63
28.11
51.81
70.17
82.53
88.80
89.32
84.91
77.00
67.59
58.88
52.71
49.99
50.44
52.82
55.48
57.10
57.09
55.64
53.39
50.93
48.36
45.27
40.95
34.77
26.63
17.01
6.83
-2.95
-11.63
-19.18
-26.09
-33.21
-41.42
-51.27
-62.75
-75.09
-86.74
-95.52
-99.10
-95.52
-83.89
-64.81
-40.31
-13.40
12.72
35.39
52.92
64.62
70.51
71.06
67.07
59.67
50.33
40.74
32.58
27.03
24.58
24.90
27.01
29.71
31.92
32.99
32.75
31.41
29.26
26.41
22.71
17.83
11.55
3.97
-4.38
-12.70
-20.28
-26.77
-32.32
-37.39
-42.55
-48.29
-54.89
-62.34
-70.26
-77.68
-82.92
-83.82
-78.29
-65.12
-44.62
-18.74
9.46
36.67
60.30
78.88
92.04
100.03
103.46
103.05
99.81
95.14
90.71
87.96
87.60
89.24
91.54
92.68
91.20
86.45
78.78
69.17
58.70
48.09
37.52
26.83
15.80
4.41
-7.06
-18.14
-28.39
-37.56
-45.64
-52.75
-59.14
-65.08
-70.93
-77.15
-84.34
-93.04
-103.39
-114.71
-125.34
-132.87
-134.81
-129.41
-116.37
-97.04
-73.93
-50.00
-27.78
-8.92
5.80
16.20
22.39
24.63
23.37
19.52
14.36
9.43
6.09
5.15
6.61
9.73
13.37
16.43
18.30
18.93
18.81
18.50
18.34
18.18
17.45
15.42
11.66
6.21
-0.37
-7.23
-13.60
-19.08
-23.74
-27.96
-32.36
-37.50
-43.83
-51.57
-60.49
-69.82
-78.01
-82.99
-82.52
-74.98
-59.95
-38.50
-13.04
13.43
38.00
58.58
74.00
83.91
88.46
88.12
83.66
76.16
67.06
57.96
50.31
45.03
42.33
41.73
42.28
42.95
42.91
41.77
39.58
36.67
33.40
29.91
26.06
21.47
15.76
8.81
0.87
-7.51
-15.65
-23.01
-29.37
-34.85
-39.87
-44.99
-50.82
-57.86
-66.26
-75.52
-84.31
-90.57
-91.98
-86.67
-73.98
-54.71
-31.05
-5.88
17.95
38.26
53.82
64.15
69.32
69.71
65.99
59.16
50.59
41.91
34.56
29.54
27.11
26.87
27.99
29.56
30.87
31.57
31.55
30.77
29.16
26.54
22.73
17.64
11.43
4.54
-2.46
-8.97
-14.61
-19.34
-23.48
-27.68
-32.63
-38.88
-46.50
-54.93
-62.90
-68.58
-70.00
-65.59
-54.72
-38.07
-17.55
4.23
24.60
41.43
53.43
60.14
61.77
58.93
52.58
43.87
34.21
24.97
17.32
11.96
9.03
8.16
8.70
9.93
11.23
12.13
12.32
11.59
9.79
6.85
2.77
-2.31
-8.10
-14.25
-20.36
-26.19
-31.79
-37.51
-43.90
-51.44
-60.13
-69.20
-76.98
-81.26
-79.85
-71.41
-55.97
-35.18
-11.81
11.02
30.60
45.24
54.32
58.08
57.24
52.68
45.40
36.51
27.15
18.42
11.16
5.79
2.34
0.51
-0.20
-0.34
-0.49
-1.12
-2.59
-5.02
-8.29
-12.05
-15.88
-19.43
-22.54
-25.28
-27.98
-31.16
-35.39
-41.08
-48.14
-55.65
-61.85
-64.41
-61.20
-51.06
-34.36
-12.98
10.24
32.37
51.12
65.20
74.20
78.29
77.84
73.46
65.95
56.45
46.37
37.08
29.60
24.35
21.05
19.00
17.36
15.48
13.00
9.91
6.30
2.33
-1.90
-6.38
-11.14
-16.23
-21.76
-27.88
-34.78
-42.69
-51.59
-61.08
-70.05
-76.78
-79.22
-75.65
-65.30
-48.79
-28.10
-5.99
14.74
31.88
44.20
51.30
53.41
51.08
45.04
36.28
26.11
16.03
7.55
1.79
-0.80
-0.61
1.33
3.65
5.10
4.90
2.87
-0.64
-5.05
-9.78
-14.54
-19.26
-24.14
-29.47
-35.58
-42.69
-50.82
-59.61
-68.13
-74.83
-77.86
-75.46
-66.67
-51.70
-32.06
-10.13
11.37
30.12
44.47
53.57
57.28
55.93
50.31
41.62
31.39
21.27
12.77
6.91
4.04
3.74
5.02
6.55
7.06
5.76
2.48
-2.21
-7.36
-11.99
-15.55
-18.19
-20.67
-24.03
-29.17
-36.48
-45.66
-55.61
-64.64
-70.68
-71.77
-66.47
-54.34
-36.22
-14.10
9.25
30.97
48.70
60.95
67.24
67.90
63.80
56.14
46.31
35.76
25.88
17.81
12.23
9.16
8.07
7.94
7.74
6.68
4.48
1.31
-2.39
-6.20
-9.89
-13.56
-17.49
-22.13
-27.91
-35.14
-43.80
-53.34
-62.42
-69.08
-71.09
-66.70
-55.31
-37.83
-16.47
5.91
26.58
43.48
55.51
62.24
63.74
60.46
53.21
43.29
32.40
22.33
14.55
9.77
7.82
7.80
8.49
8.82
8.15
6.36
3.74
0.72
-2.37
-5.40
-8.50
-11.94
-16.12
-21.43
-28.17
-36.27
-45.11
-53.37
-59.09
-60.17
-54.98
-43.01
-25.10
-3.32
19.61
41.00
58.71
71.38
78.36
79.63
75.60
67.23
55.99
43.75
32.43
23.59
17.99
15.51
15.21
15.81
16.09
15.25
13.04
9.71
5.76
1.73
-2.07
-5.66
-9.40
-13.86
-19.64
-27.13
-36.25
-46.20
-55.47
-62.02
-63.78
-59.21
-47.92
-30.84
-9.99
12.02
32.60
49.67
61.78
68.14
68.55
63.37
53.62
40.93
27.27
14.58
4.28
-3.01
-7.53
-10.13
-11.92
-13.82
-16.32
-19.43
-22.78
-25.91
-28.58
-30.88
-33.23
-36.29
-40.71
-46.94
-55.06
-64.55
-74.21
-82.16
-86.20
-84.33
-75.44
-59.78
-38.94
-15.47
7.86
28.60
45.07
56.30
61.91
61.94
56.93
47.99
36.76
25.25
15.38
8.50
5.04
4.51
5.69
7.11
7.50
6.14
3.00
-1.40
-6.25
-10.86
-14.97
-18.86
-23.33
-29.37
-37.71
-48.43
-60.63
-72.42
-81.28
-84.61
-80.52
-68.42
-49.31
-25.56
-0.31
23.32
42.89
56.94
64.93
67.02
63.84
56.36
45.93
34.23
23.10
14.15
8.36
5.84
5.76
6.76
7.39
6.64
4.15
0.16
-4.69
-9.83
-14.83
-19.61
-24.27
-29.15
-34.68
-41.41
-49.88
-60.32
-72.29
-84.35
-94.13
-98.77
-95.76
-83.82
-63.45
-36.88
-7.50
21.00
45.53
64.05
75.70
80.53
79.30
73.21
63.79
52.79
41.93
32.62
25.74
21.42
19.27
18.54
18.45
18.42
18.05
17.10
15.31
12.47
8.45
3.31
-2.64
-8.99
-15.38
-21.66
-27.98
-34.75
-42.51
-51.79
-62.79
-75.10
-87.46
-97.67
-102.96
-100.75
-89.46
-69.26
-42.17
-11.52
19.01
46.28
68.28
84.13
93.75
97.49
95.95
90.09
81.24
71.23
62.00
55.19
51.67
51.33
53.15
55.68
57.51
57.73
56.12
53.02
49.04
44.69
40.20
35.39
29.84
23.21
15.40
6.71
-2.25
-10.86
-18.68
-25.66
-32.16
-38.73
-46.02
-54.58
-64.76
-76.40
-88.65
-99.77
-107.20
-108.12
-100.37
-83.26
-58.06
-27.79
3.70
32.77
56.82
74.59
85.89
91.19
91.19
86.83
79.37
70.45
61.84
55.09
51.09
49.89
50.81
52.78
54.77
56.03
56.15
55.00
52.63
49.15
44.68
39.38
33.43
27.04
20.35
13.51
6.57
-0.46
-7.61
-14.89
-22.25
-29.47
-36.27
-42.40
-47.81
-52.75
-57.85
-63.93
-71.68
-81.28
-91.93
-101.72
-107.90
-107.55
-98.61
-80.69
-55.35
-25.69
4.55
31.99
54.36
70.58
80.49
84.47
83.19
77.60
69.06
59.30
50.20
43.29
39.42
38.53
39.83
42.09
44.11
45.06
44.61
42.86
40.18
36.94
33.37
29.49
25.10
19.96
13.86
6.76
-1.15
-9.49
-17.71
-25.34
-32.07
-37.92
-43.24
-48.62
-54.73
-61.99
-70.30
-78.82
-85.94
-89.54
-87.53
-78.53
-62.38
-40.32
-14.67
11.71
36.10
56.33
71.02
79.52
81.87
78.80
71.63
62.15
52.31
43.78
37.56
33.89
32.36
32.18
32.60
33.08
33.34
33.28
32.82
31.82
30.06
27.30
23.37
18.29
12.25
5.57
-1.35
-8.19
-14.71
-20.89
-26.84
-32.91
-39.55
-47.12
-55.65
-64.51
-72.28
-76.87
-76.14
-68.53
-53.81
-33.29
-9.55
14.33
35.54
52.13
63.16
68.53
68.70
64.48
56.95
47.48
37.53
28.49
21.34
16.46
13.73
12.64
12.53
12.81
12.96
12.56
11.32
9.07
5.81
1.72
-2.92
-7.86
-12.97
-18.27
-23.93
-30.21
-37.40
-45.69
-55.01
-64.80
-73.90
-80.53
-82.73
-78.83
-68.12
-51.22
-30.03
-7.22
14.39
32.52
45.73
53.46
55.84
53.47
47.31
38.57
28.70
19.10
10.98
5.08
1.64
0.39
0.71
1.82
2.89
3.20
2.31
0.05
-3.37
-7.54
-12.04
-16.59
-21.18
-26.14
-31.94
-39.05
-47.69
-57.57
-67.64
-76.20
-81.13
-80.46
-72.98
-58.63
-38.63
-15.23
8.87
31.02
49.12
61.85
68.68
69.81
66.02
58.51
48.69
38.11
28.18
20.03
14.32
11.08
9.71
9.24
8.61
6.98
4.06
0.04
-4.61
-9.37
-14.01
-18.55
-23.29
-28.62
-34.93
-42.48
-51.40
-61.47
-71.98
-81.62
-88.42
-90.23
-85.28
-72.92
-54.01
-30.84
-6.51
15.97
34.29
47.24
54.57
56.58
53.92
47.46
38.38
28.24
18.80
11.65
7.80
7.35
9.55
13.11
16.63
19.00
19.66
18.56
15.95
12.27
7.86
2.92
-2.55
-8.68
-15.75
-24.13
-34.13
-45.85
-58.85
-71.93
-83.05
-89.66
-89.36
-80.65
-63.63
-40.11
-13.17
13.67
37.39
55.96
68.52
75.03
75.96
72.06
64.32
54.08
42.97
32.67
24.54
19.28
16.82
16.47
17.22
18.10
18.36
17.59
15.64
12.64
8.83
4.51
-0.16
-5.20
-10.93
-17.85
-26.49
-37.18
-49.67
-62.92
-75.02
-83.45
-85.68
-79.95
-65.92
-44.87
-19.50
6.84
30.92
50.35
63.87
71.25
72.91
69.68
62.59
52.78
41.59
30.49
20.93
14.02
10.28
9.41
10.44
12.00
12.81
12.10
9.71
6.04
1.67
-2.93
-7.61
-12.48
-17.75
-23.70
-30.57
-38.60
-47.96
-58.49
-69.40
-79.04
-85.04
-84.92
-76.92
-60.74
-37.78
-10.83
16.71
41.73
62.01
76.35
84.36
86.25
82.61
74.41
63.05
50.36
38.30
28.60
22.30
19.57
19.68
21.37
23.22
24.09
23.40
21.14
17.66
13.46
8.97
4.37
-0.33
-5.26
-10.61
-16.63
-23.68
-32.11
-42.04
-52.95
-63.50
-71.46
-74.31
-69.93
-57.50
-37.87
-13.42
12.59
36.90
56.92
71.09
78.83
80.32
76.31
68.01
57.04
45.22
34.33
25.74
20.14
17.48
17.03
17.71
18.38
18.15
16.56
13.56
9.45
4.69
-0.31
-5.30
-10.29
-15.49
-21.26
-28.06
-36.29
-46.10
-57.10
-68.12
-77.16
-81.73
-79.60
-69.54
-51.92
-28.76
-3.18
21.49
42.52
58.19
67.80
71.40
69.48
62.84
52.68
40.51
28.14
17.29
9.24
4.50
2.74
2.93
3.75
4.00
2.90
0.26
-3.63
-8.26
-13.12
-17.98
-22.94
-28.32
-34.59
-42.26
-51.71
-63.06
-75.75
-88.32
-98.30
-102.72
-99.02
-85.97
-64.33
-36.74
-6.88
21.52
45.70
64.08
76.14
82.02
82.14
77.19
68.23
56.78
44.72
33.87
25.66
20.77
19.02
19.49
20.80
21.54
20.65
17.69
12.83
6.69
0.01
-6.65
-13.08
-19.41
-26.05
-33.50
-42.31
-52.90
-65.25
-78.68
-91.51
-101.20
-104.82
-99.96
-85.63
-62.82
-34.30
-3.89
24.60
48.34
65.84
76.80
81.66
81.20
76.36
68.29
58.48
48.58
40.16
34.26
31.15
30.32
30.85
31.77
32.35
32.21
31.14
28.97
25.54
20.75
14.71
7.78
0.40
-7.01
-14.30
-21.55
-29.08
-37.32
-46.72
-57.45
-69.16
-80.63
-89.72
-93.76
-90.27
-77.89
-57.06
-30.11
-0.55
27.88
52.16
70.52
82.41
88.10
88.30
84.02
76.48
67.25
58.03
50.40
45.31
42.87
42.37
42.68
42.74
42.00
40.46
38.45
36.20
33.57
30.12
25.26
18.68
10.49
1.28
-8.11
-16.86
-24.46
-30.81
-36.30
-41.73
-48.10
-56.26
-66.47
-77.96
-88.81
-96.28
-97.49
-90.39
-74.49
-51.16
-23.28
5.59
32.16
54.09
70.18
80.18
84.39
83.42
78.17
69.90
60.20
50.81
43.21
38.20
35.74
35.10
35.28
35.37
34.93
33.98
32.82
31.74
30.72
29.34
26.91
22.80
16.71
8.86
-0.07
-9.15
-17.54
-24.84
-31.08
-36.78
-42.72
-49.70
-58.30
-68.49
-79.48
-89.55
-96.30
-97.23
-90.52
-75.68
-53.85
-27.60
-0.19
25.22
46.24
61.45
70.41
73.40
71.18
64.93
56.11
46.39
37.35
30.20
25.55
23.30
22.83
23.30
23.89
24.09
23.64
22.54
20.85
18.54
15.44
11.34
6.13
-0.10
-6.99
-14.05
-20.85
-27.20
-33.25
-39.47
-46.48
-54.79
-64.44
-74.72
-84.02
-90.05
-90.40
-83.32
-68.40
-46.85
-21.26
5.17
29.38
49.14
63.22
71.26
73.51
70.58
63.48
53.52
42.34
31.61
22.67
16.26
12.46
10.75
10.32
10.43
10.55
10.42
9.87
8.79
6.99
4.27
0.47
-4.40
-10.21
-16.63
-23.32
-29.95
-36.38
-42.75
-49.45
-56.90
-65.13
-73.43
-80.13
-82.91
-79.48
-68.51
-50.21
-26.56
-0.71
23.93
44.51
59.34
67.89
70.52
68.09
61.68
52.49
41.86
31.06
21.27
13.24
7.34
3.46
1.28
0.42
0.49
1.15
2.02
2.71
2.84
2.18
0.73
-1.35
-3.82
-6.55
-9.57
-13.14
-17.71
-23.75
-31.59
-41.13
-51.60
-61.40
-68.31
-69.90
-64.32
-50.97
-30.79
-6.17
19.73
43.77
63.46
77.32
84.84
86.31
82.64
75.14
65.46
55.34
46.29
39.17
33.98
29.86
25.49
19.74
12.14
3.18
-5.95
-13.92
-19.72
-23.09
-24.39
-24.40
-23.94
-23.75
-24.45
-26.66
-31.03
-38.04
-47.62
-58.84
-69.76
-77.80
-80.36
-75.65
-63.34
-44.78
-22.58
0.15
20.60
36.88
48.06
53.97
54.82
51.04
43.33
32.78
20.97
9.71
0.65
-5.19
-7.81
-8.05
-7.30
-6.95
-7.91
-10.48
-14.41
-19.18
-24.21
-29.07
-33.61
-37.92
-42.45
-47.86
-54.79
-63.47
-73.37
-82.91
-89.82
-91.69
-86.81
-74.78
-56.72
-34.86
-11.97
9.39
27.23
40.25
47.75
49.59
46.08
38.10
27.10
14.99
3.80
-4.74
-9.64
-10.86
-9.27
-6.34
-3.64
-2.35
-2.97
-5.24
-8.45
-11.86
-15.03
-18.03
-21.42
-25.96
-32.30
-40.64
-50.54
-60.80
-69.57
-74.63
-73.90
-66.00
-50.71
-29.21
-3.90
22.19
46.07
65.41
78.86
86.07
87.37
83.63
75.98
65.81
54.66
44.11
35.55
29.81
26.99
26.44
26.93
27.18
26.20
23.66
19.84
15.38
10.92
6.71
2.56
-2.12
-8.08
-15.98
-26.12
-38.32
-51.75
-64.79
-75.22
-80.51
-78.54
-68.31
-50.36
-26.85
-0.91
24.14
45.64
61.89
72.19
76.55
75.45
69.76
60.78
50.13
39.59
30.75
24.55
21.12
19.93
19.96
20.14
19.61
17.89
14.89
10.85
6.15
1.13
-3.97
-9.14
-14.54
-20.39
-26.91
-34.35
-42.95
-52.88
-63.88
-74.96
-84.24
-89.10
-86.91
-76.01
-56.49
-30.38
-1.17
27.23
51.55
69.72
81.07
85.92
85.15
79.90
71.42
61.15
50.61
41.22
34.00
29.45
27.38
27.16
27.92
28.79
29.09
28.31
26.22
22.76
18.16
12.74
6.89
0.92
-5.09
-11.21
-17.68
-24.83
-32.99
-42.37
-52.87
-63.74
-73.45
-79.71
-80.04
-72.63
-57.11
-34.89
-8.92
17.26
40.41
58.39
70.26
76.06
76.33
71.94
63.90
53.57
42.50
32.30
24.25
19.02
16.55
16.22
17.06
18.10
18.48
17.62
15.24
11.34
6.16
0.13
-6.28
-12.70
-18.98
-25.22
-31.80
-39.23
-48.05
-58.50
-70.24
-82.09
-91.98
-97.33
-95.69
-85.59
-67.21
-42.43
-14.45
13.09
37.09
55.52
67.58
73.41
73.72
69.47
61.83
52.13
41.90
32.69
25.70
21.52
20.03
20.51
21.90
23.22
23.72
23.00
20.95
17.65
13.26
8.00
2.09
-4.24
-10.82
-17.56
-24.55
-32.10
-40.67
-50.68
-62.13
-74.18
-84.96
-91.88
-92.31
-84.45
-68.16
-45.11
-18.26
8.93
33.46
53.23
67.17
74.99
76.95
73.76
66.64
57.18
47.20
38.32
31.64
27.50
25.59
25.23
25.69
26.42
27.03
27.27
26.86
25.49
22.89
18.91
13.65
7.47
0.84
-5.81
-12.24
-18.50
-24.96
-32.13
-40.53
-50.38
-61.27
-71.91
-80.21
-83.59
-79.83
-67.84
-48.19
-23.11
4.10
29.99
51.82
67.95
77.80
81.61
80.02
73.99
64.81
54.07
43.51
34.69
28.55
25.26
24.18
24.32
24.68
24.64
24.03
22.91
21.33
19.17
16.13
11.93
6.52
0.17
-6.60
-13.27
-19.46
-25.13
-30.50
-36.06
-42.42
-50.11
-59.35
-69.72
-79.97
-88.00
-91.26
-87.54
-75.71
-56.30
-31.50
-4.52
21.21
42.90
58.89
68.66
72.55
71.42
66.38
58.67
49.60
40.46
32.36
26.09
21.92
19.71
18.95
19.03
19.36
19.53
19.20
18.12
16.10
13.01
8.83
3.75
-1.95
-7.95
-14.00
-19.98
-25.99
-32.25
-39.13
-46.98
-55.82
-65.11
-73.52
-78.98
-79.19
-72.40
-58.06
-37.32
-12.73
12.42
35.01
52.82
64.83
70.95
71.72
67.96
60.62
50.80
39.83
29.15
20.06
13.46
9.60
8.07
8.00
8.34
8.20
7.00
4.59
1.09
-3.20
-7.95
-12.93
-18.00
-23.20
-28.70
-34.86
-42.12
-50.81
-60.94
-71.88
-82.25
-89.93
-92.53
-88.08
-75.75
-56.29
-31.97
-6.04
18.23
38.22
52.43
60.44
62.55
59.50
52.27
42.15
30.69
19.60
10.45
4.28
1.31
0.96
2.11
3.46
4.00
3.23
1.17
-1.74
-5.01
-8.30
-11.64
-15.34
-19.91
-25.82
-33.41
-42.70
-53.20
-63.83
-72.85
-78.12
-77.54
-69.78
-54.80
-34.03
-10.02
14.22
35.99
53.35
65.23
71.28
71.61
66.75
57.71
46.05
33.73
22.70
14.44
9.53
7.60
7.60
8.29
8.71
8.41
7.40
5.91
4.13
2.03
-0.66
-4.30
-9.30
-15.99
-24.59
-34.99
-46.51
-57.72
-66.48
-70.39
-67.54
-57.22
-40.28
-19.02
3.54
24.45
41.49
53.40
59.74
60.59
56.41
48.05
36.87
24.69
13.49
4.95
-0.06
-1.74
-1.15
0.24
1.08
0.62
-1.19
-4.01
-7.35
-10.99
-15.06
-19.99
-26.30
-34.37
-44.21
-55.17
-65.93
-74.58
-78.91
-77.08
-68.16
-52.56
-32.00
-9.06
13.47
33.17
48.30
57.86
61.51
59.57
52.98
43.27
32.31
21.94
13.53
7.69
4.30
2.75
2.24
2.08
1.77
1.02
-0.40
-2.63
-5.74
-9.80
-14.89
-21.18
-28.78
-37.59
-46.98
-55.57
-61.40
-62.38
-57.00
-44.86
-26.97
-5.49
16.81
37.19
53.48
64.28
69.03
67.91
61.84
52.31
41.23
30.58
21.92
16.07
13.04
12.11
12.26
12.55
12.35
11.33
9.45
6.79
3.40
-0.74
-5.76
-11.93
-19.48
-28.37
-38.02
-47.12
-53.74
-55.85
-51.85
-41.28
-24.97
-4.98
16.03
35.32
50.64
60.51
64.35
62.40
55.64
45.56
33.99
22.76
13.35
6.72
3.13
2.13
2.81
4.05
4.79
4.35
2.50
-0.62
-4.61
-9.17
-14.27
-20.14
-27.13
-35.39
-44.47
-53.17
-59.60
-61.69
-57.77
-47.22
-30.75
-10.29
11.51
31.85
48.40
59.58
64.63
63.63
57.42
47.48
35.76
24.30
14.83
8.34
4.87
3.69
3.66
3.62
2.82
1.01
-1.67
-4.87
-8.30
-11.94
-16.10
-21.35
-28.27
-37.05
-47.20
-57.41
-65.74
-70.03
-68.50
-60.28
-45.71
-26.36
-4.63
16.67
34.90
47.92
54.48
54.24
47.79
36.54
22.54
8.05
-4.96
-15.17
-22.27
-26.81
-29.94
-32.83
-36.31
-40.74
-46.10
-52.27
-59.22
-67.08
-76.12
-86.60
-98.69
-112.31
-126.92
-141.29
-153.31
-160.26
-159.32
-148.41
-126.95
-96.20
-58.94
-18.92
20.10
55.00
83.71
105.25
119.57
127.38
129.98
128.98
126.00
122.38
118.90
115.66
112.21
107.89
102.12
94.68
85.82
76.10
66.11
56.22
46.40
36.15
24.69
11.36
-4.02
-20.64
-36.57
-49.08
-55.25
-52.97
-41.67
-22.61
1.44
27.03
50.89
70.59
84.68
92.51
94.00
89.54
80.04
67.06
52.74
39.37
28.91
22.35
19.51
19.12
19.45
18.96
16.79
12.95
8.05
2.82
-2.37
-7.61
-13.38
-20.31
-28.92
-39.54
-52.20
-66.50
-81.33
-94.72
-103.95
-106.13
-99.14
-82.36
-57.21
-26.74
5.10
34.54
58.68
75.93
85.88
88.99
86.31
79.21
69.31
58.33
47.87
39.22
33.15
29.77
28.60
28.78
29.30
29.23
27.91
24.97
20.33
14.16
6.79
-1.28
-9.59
-17.79
-25.76
-33.64
-41.80
-50.68
-60.70
-72.04
-84.37
-96.55
-106.52
-111.49
-108.68
-96.31
-74.36
-44.91
-11.56
21.57
50.95
74.27
90.53
99.69
102.26
99.13
91.53
81.20
70.16
60.39
53.45
49.97
49.63
51.30
53.49
54.84
54.48
52.26
48.55
44.05
39.29
34.42
29.14
22.86
15.06
5.60
-5.12
-16.34
-27.09
-36.64
-44.69
-51.42
-57.53
-63.93
-71.52
-80.82
-91.60
-102.58
-111.49
-115.47
-111.86
-99.09
-77.37
-48.76
-16.69
14.99
42.94
64.92
79.93
87.96
89.67
86.12
78.67
68.95
58.79
49.92
43.73
40.89
41.23
43.87
47.48
50.73
52.61
52.62
50.79
47.44
43.04
38.00
32.55
26.74
20.54
13.85
6.63
-1.04
-9.05
-17.18
-25.13
-32.61
-39.40
-45.43
-50.89
-56.14
-61.72
-68.17
-75.78
-84.36
-92.97
-99.85
-102.67
-99.11
-87.64
-68.24
-42.60
-13.73
14.88
40.16
60.06
73.63
80.72
81.67
77.22
68.53
57.31
45.67
35.72
28.95
25.90
26.02
28.07
30.57
32.33
32.74
31.75
29.68
26.98
23.95
20.62
16.74
11.99
6.16
-0.68
-8.12
-15.55
-22.40
-28.31
-33.29
-37.72
-42.28
-47.70
-54.51
-62.69
-71.44
-79.22
-83.90
-83.42
-76.33
-62.34
-42.47
-18.86
5.78
28.67
47.51
60.75
67.72
68.59
64.30
56.30
46.36
36.24
27.40
20.79
16.78
15.17
15.37
16.64
18.21
19.49
20.07
19.70
18.21
15.49
11.49
6.28
0.07
-6.83
-14.03
-21.16
-28.00
-34.55
-41.08
-48.09
-56.06
-65.14
-74.78
-83.57
-89.35
-89.76
-83.00
-68.55
-47.48
-22.26
3.88
27.75
46.90
59.92
66.47
67.01
62.49
54.13
43.31
31.53
20.30
10.93
4.35
0.92
0.32
1.74
4.04
6.12
7.13
6.61
4.52
1.05
-3.46
-8.68
-14.34
-20.22
-26.26
-32.56
-39.46
-47.42
-56.76
-67.23
-77.66
-85.98
-89.60
-86.26
-74.90
-56.16
-32.20
-6.19
18.68
39.87
55.88
66.07
70.43
69.37
63.64
54.40
43.25
32.05
22.48
15.66
11.88
10.62
10.84
11.42
11.42
10.37
8.12
4.82
0.73
-3.85
-8.73
-13.77
-19.00
-24.61
-30.92
-38.40
-47.50
-58.40
-70.62
-82.72
-92.36
-96.79
-93.60
-81.68
-61.68
-36.01
-8.12
18.44
40.86
57.49
67.86
72.28
71.54
66.59
58.48
48.48
38.00
28.53
21.29
16.93
15.31
15.65
16.77
17.57
17.34
15.81
13.02
9.13
4.30
-1.38
-7.73
-14.50
-21.51
-28.70
-36.26
-44.61
-54.05
-64.51
-75.17
-84.38
-89.85
-89.22
-80.86
-64.47
-41.44
-14.61
12.51
36.63
55.45
67.91
74.05
74.55
70.29
62.26
51.58
39.59
27.91
18.11
11.36
8.11
7.97
9.85
12.36
14.28
14.78
13.57
10.80
6.84
2.11
-3.01
-8.25
-13.35
-18.24
-23.04
-28.23
-34.49
-42.41
-51.95
-62.11
-70.79
-75.28
-73.04
-62.68
-44.53
-20.65
5.72
31.03
52.33
67.77
76.68
79.28
76.35
68.93
58.28
45.92
33.61
23.08
15.64
11.83
11.22
12.58
14.38
15.25
14.49
12.08
8.50
4.42
0.28
-3.76
-7.84
-12.32
-17.60
-24.08
-32.09
-41.85
-53.14
-65.06
-75.86
-83.16
-84.51
-78.19
-63.90
-42.98
-18.13
7.35
30.32
48.48
60.57
66.26
65.99
60.61
51.38
39.77
27.51
16.28
7.54
2.12
0.02
0.43
1.94
3.07
2.72
0.55
-3.11
-7.58
-12.25
-16.94
-21.91
-27.68
-34.73
-43.37
-53.59
-65.08
-77.06
-88.16
-96.35
-99.29
-94.87
-82.11
-61.57
-35.46
-7.05
20.22
43.56
61.24
72.62
77.73
77.08
71.44
61.98
50.28
38.24
27.78
20.27
16.25
15.32
16.30
17.72
18.33
17.40
14.82
10.90
6.10
0.75
-4.97
-11.06
-17.61
-24.83
-33.06
-42.69
-53.96
-66.45
-78.80
-88.66
-93.07
-89.40
-76.40
-54.74
-27.07
2.81
31.00
54.45
71.41
81.29
84.34
81.26
73.12
61.46
48.25
35.68
25.69
19.49
17.16
17.80
19.93
22.03
23.05
22.50
20.43
17.17
13.05
8.25
2.86
-3.09
-9.62
-16.81
-24.90
-34.28
-45.29
-57.79
-70.76
-82.06
-88.76
-88.01
-78.00
-58.84
-32.62
-2.90
26.38
51.88
71.46
84.23
90.18
89.87
84.22
74.51
62.37
49.73
38.42
29.81
24.55
22.43
22.66
24.10
25.59
26.18
25.29
22.72
18.61
13.41
7.59
1.52
-4.59
-10.79
-17.29
-24.38
-32.41
-41.70
-52.35
-63.98
-75.49
-84.89
-89.66
-87.36
-76.47
-57.05
-31.06
-1.78
26.99
51.88
70.68
82.44
87.21
85.69
78.93
68.29
55.49
42.53
31.38
23.58
19.74
19.47
21.56
24.47
26.85
27.85
27.17
24.94
21.43
16.90
11.57
5.59
-0.84
-7.50
-14.22
-20.96
-27.95
-35.61
-44.51
-54.86
-66.16
-76.83
-84.32
-85.74
-78.80
-62.78
-38.99
-10.51
18.74
45.04
65.75
79.58
86.39
86.73
81.53
72.03
59.77
46.59
34.39
24.80
18.73
16.21
16.45
18.15
19.93
20.74
20.02
17.67
13.94
9.22
3.86
-1.88
-7.86
-14.05
-20.47
-27.25
-34.64
-43.01
-52.66
-63.57
-75.01
-85.36
-92.25
-93.11
-85.93
-70.14
-47.01
-19.40
8.94
34.42
54.40
67.56
73.75
73.62
68.26
59.00
47.37
35.11
23.91
15.20
9.80
7.74
8.33
10.41
12.71
14.15
14.04
12.11
8.43
3.27
-2.95
-9.83
-16.99
-24.11
-30.97
-37.56
-44.12
-51.19
-59.47
-69.49
-81.04
-92.84
-102.43
-106.74
-102.96
-89.58
-67.13
-38.11
-6.31
24.18
50.05
69.25
81.07
85.76
84.16
77.48
67.21
55.12
43.09
32.86
25.65
21.95
21.41
23.13
25.89
28.51
30.08
30.06
28.29
24.90
20.17
14.43
7.98
1.05
-6.16
-13.51
-20.94
-28.56
-36.76
-45.98
-56.46
-67.73
-78.23
-85.51
-86.78
-79.87
-64.04
-40.49
-12.06
17.51
44.58
66.41
81.50
89.53
91.06
87.11
79.00
68.25
56.47
45.27
36.01
29.52
25.98
24.84
25.21
26.13
26.82
26.83
25.89
23.87
20.62
16.12
10.46
3.97
-2.90
-9.71
-16.25
-22.63
-29.26
-36.75
-45.61
-55.86
-66.62
-76.04
-81.51
-80.31
-70.58
-52.10
-26.65
2.53
31.57
57.11
76.93
90.18
97.07
98.36
95.11
88.48
79.86
70.80
62.84
57.25
54.75
55.38
58.58
63.41
68.80
73.79
77.54
79.39
78.82
75.46
69.10
59.81
48.01
34.41
19.83
4.90
-10.16
-25.52
-41.52
-58.05
-74.26
-88.29
-97.87
-100.98
-96.71
-85.69
-69.88
-52.02
-34.82
-20.40
-10.06
-4.46
-3.69
-7.47
-15.03
-25.09
-35.94
-45.75
-52.97
-56.69
-56.84
-54.11
-49.70
-44.98
-41.19
-39.11
-38.93
-40.33
-42.63
-45.16
-47.58
-49.98
-52.97
-57.27
-63.41
-71.39
-80.43
-89.08
-95.32
-97.03
-92.40
-80.51
-61.67
-37.57
-10.93
15.05
37.42
54.14
64.25
67.88
65.86
59.50
50.25
39.65
29.24
20.40
14.12
10.80
10.16
11.25
12.88
13.91
13.57
11.69
8.53
4.63
0.43
-3.90
-8.58
-14.07
-20.93
-29.53
-39.88
-51.32
-62.50
-71.41
-75.76
-73.63
-64.01
-47.39
-25.62
-1.51
21.86
41.90
56.86
65.94
69.08
66.76
59.84
49.57
37.56
25.68
15.74
9.02
5.99
6.12
8.09
10.27
11.23
10.20
7.13
2.63
-2.50
-7.63
-12.50
-17.31
-22.54
-28.75
-36.41
-45.67
-56.11
-66.59
-75.19
-79.54
-77.41
-67.50
-50.10
-27.17
-1.84
22.45
42.84
57.56
66.00
68.35
65.30
57.83
47.21
35.09
23.31
13.68
7.49
5.14
5.98
8.51
10.92
11.75
10.36
7.00
2.56
-1.97
-6.01
-9.55
-13.18
-17.69
-23.88
-32.21
-42.65
-54.44
-66.05
-75.21
-79.42
-76.58
-65.75
-47.60
-24.29
1.04
25.19
45.47
60.15
68.47
70.49
66.91
58.89
48.05
36.26
25.45
17.22
12.40
10.88
11.65
13.19
13.98
13.06
10.21
5.84
0.73
-4.50
-9.54
-14.52
-19.89
-26.22
-34.10
-43.88
-55.49
-68.16
-80.25
-89.42
-93.07
-89.14
-76.86
-57.14
-32.38
-5.91
18.98
39.65
54.53
63.01
65.27
62.01
54.37
43.89
32.40
21.83
13.75
9.06
7.72
8.83
10.98
12.80
13.32
12.22
9.72
6.35
2.58
-1.43
-5.79
-10.86
-17.07
-24.74
-33.99
-44.60
-55.78
-66.05
-73.32
-75.25
-69.95
-56.71
-36.39
-11.35
15.19
39.94
60.25
74.53
82.12
83.17
78.35
68.86
56.43
43.18
31.34
22.76
18.33
17.81
19.94
22.93
25.12
25.47
23.74
20.35
15.99
11.21
6.23
0.89
-5.27
-12.83
-22.19
-33.30
-45.46
-57.06
-65.84
-69.33
-65.57
-53.85
-35.03
-11.37
14.03
38.00
57.97
72.18
79.79
80.69
75.46
65.31
52.01
37.71
24.56
14.25
7.66
4.69
4.43
5.58
6.81
7.16
6.17
3.90
0.69
-3.06
-7.12
-11.58
-16.85
-23.52
-32.05
-42.40
-53.66
-63.98
-70.86
-71.77
-65.06
-50.46
-29.37
-4.43
21.12
44.21
62.46
74.47
79.68
78.41
71.62
60.91
48.33
36.03
25.91
19.12
15.89
15.55
16.83
18.38
19.13
18.57
16.77
14.10
10.98
7.57
3.67
-1.30
-7.97
-16.81
-27.67
-39.59
-50.76
-58.84
-61.46
-56.98
-44.96
-26.44
-3.65
20.46
42.93
61.26
73.75
79.57
78.81
72.29
61.55
48.64
35.68
24.57
16.50
11.76
9.77
9.39
9.37
8.80
7.33
5.10
2.53
-0.03
-2.48
-5.04
-8.22
-12.59
-18.61
-26.34
-35.14
-43.60
-49.68
-51.20
-46.50
-35.10
-17.95
2.77
24.16
43.39
58.23
67.32
70.20
67.25
59.46
48.38
35.85
23.65
13.28
5.57
0.67
-1.86
-2.83
-3.11
-3.42
-4.19
-5.60
-7.62
-10.22
-13.41
-17.45
-22.69
-29.52
-37.97
-47.54
-56.92
-64.16
-67.03
-63.66
-53.24
-36.36
-14.98
7.97
29.40
46.61
57.83
62.38
60.60
53.63
43.17
31.17
19.51
9.64
2.43
-2.02
-4.19
-4.93
-5.12
-5.44
-6.19
-7.49
-9.28
-11.62
-14.70
-18.94
-24.80
-32.55
-42.02
-52.34
-61.96
-68.82
-70.87
-66.57
-55.43
-38.25
-17.01
5.47
26.17
42.46
52.61
56.02
53.19
45.49
34.70
22.70
11.13
1.24
-6.21
-10.93
-13.11
-13.35
-12.52
-11.55
-11.17
-11.75
-13.28
-15.62
-18.68
-22.68
-28.04
-35.11
-43.77
-53.00
-60.96
-65.28
-63.76
-55.06
-39.30
-18.14
5.69
28.97
48.85
63.28
71.24
72.70
68.37
59.57
48.02
35.65
24.27
15.20
9.06
5.67
4.25
3.77
3.31
2.28
0.49
-2.05
-5.20
-8.99
-13.62
-19.49
-27.02
-36.44
-47.36
-58.60
-68.21
-73.75
-73.01
-64.70
-49.05
-27.77
-3.69
20.00
40.47
55.74
64.80
67.45
64.16
55.96
44.43
31.51
19.28
9.51
3.15
0.14
-0.49
-0.22
-0.43
-2.01
-5.08
-9.25
-13.88
-18.51
-23.05
-27.94
-33.93
-41.83
-52.10
-64.43
-77.46
-88.85
-95.68
-95.28
-86.12
-68.37
-44.03
-16.33
11.14
35.31
54.12
66.58
72.55
72.39
66.90
57.25
45.09
32.43
21.29
13.28
9.14
8.51
10.10
12.09
12.72
10.89
6.37
-0.23
-7.85
-15.46
-22.47
-28.87
-35.09
-41.79
-49.68
-59.27
-70.69
-83.47
-96.24
-106.68
-111.87
-109.08
-96.62
-74.70
-45.57
-12.89
19.14
46.98
68.32
82.27
89.03
89.48
84.84
76.56
66.29
55.78
46.63
40.00
36.40
35.53
36.52
38.19
39.39
39.27
37.33
33.52
28.08
21.40
13.95
6.15
-1.65
-9.30
-16.74
-24.19
-32.00
-40.70
-50.86
-62.75
-76.00
-89.16
-99.74
-104.65
-101.11
-87.65
-64.80
-35.11
-2.45
29.14
56.37
77.27
91.11
98.03
98.67
94.01
85.45
74.81
64.12
55.27
49.40
46.73
46.53
47.56
48.59
48.84
48.10
46.56
44.50
41.94
38.57
33.79
27.12
18.44
8.24
-2.53
-12.79
-21.76
-29.32
-36.02
-42.90
-51.13
-61.49
-73.97
-87.51
-99.94
-108.39
-109.94
-102.48
-85.55
-60.57
-30.66
0.34
28.88
52.45
69.84
80.85
85.84
85.36
80.23
71.65
61.34
51.34
43.53
39.08
38.13
39.82
42.72
45.35
46.73
46.50
44.86
42.31
39.20
35.66
31.45
26.21
19.70
11.96
3.41
-5.27
-13.38
-20.41
-26.25
-31.18
-35.83
-41.01
-47.54
-55.97
-66.26
-77.57
-88.08
-95.27
-96.48
-89.70
-74.27
-51.29
-23.35
6.10
33.58
56.40
72.90
82.53
85.56
82.88
75.81
66.06
55.58
46.26
39.53
35.98
35.31
36.44
38.03
39.00
38.85
37.63
35.65
33.20
30.23
26.43
21.47
15.25
8.01
0.21
-7.65
-15.18
-22.25
-28.89
-35.33
-41.93
-49.11
-57.27
-66.38
-75.74
-83.77
-88.19
-86.68
-77.64
-60.98
-38.21
-12.16
13.85
36.79
54.57
66.12
71.25
70.45
64.62
55.09
43.55
31.86
21.74
14.39
10.19
8.74
9.10
10.27
11.41
12.05
11.92
10.85
8.67
5.23
0.59
-5.03
-11.21
-17.53
-23.70
-29.65
-35.55
-41.73
-48.67
-56.88
-66.66
-77.76
-89.04
-98.37
-102.96
-100.21
-88.57
-68.28
-41.45
-11.53
17.69
43.00
62.33
74.82
80.61
80.43
75.35
66.77
56.29
45.59
36.15
28.94
24.26
21.80
20.87
20.72
20.76
20.59
19.97
18.65
16.35
12.81
7.97
2.02
-4.57
-11.23
-17.52
-23.35
-28.98
-35.02
-42.17
-50.89
-61.03
-71.55
-80.55
-85.50
-84.02
-74.54
-57.08
-33.31
-6.29
20.45
43.74
61.43
72.57
77.24
76.16
70.44
61.41
50.56
39.41
29.37
21.47
16.18
13.34
12.33
12.29
12.44
12.19
11.23
9.46
6.90
3.60
-0.38
-5.00
-10.19
-15.85
-21.82
-28.01
-34.46
-41.38
-49.15
-58.01
-67.71
-77.19
-84.47
-87.09
-82.84
-70.64
-51.11
-26.52
-0.16
24.57
45.03
59.70
68.19
70.92
68.71
62.67
54.00
44.05
34.11
25.37
18.64
14.30
12.20
11.88
12.60
13.54
13.95
13.32
11.41
8.34
4.43
0.06
-4.45
-8.97
-13.53
-18.35
-23.74
-30.04
-37.55
-46.24
-55.59
-64.30
-70.49
-72.04
-67.25
-55.54
-37.71
-15.86
7.22
28.72
46.39
58.81
65.39
66.26
62.05
53.80
42.95
31.09
19.83
10.51
3.96
0.41
-0.55
0.21
1.65
2.79
2.97
1.99
-0.04
-2.78
-5.94
-9.39
-13.18
-17.50
-22.61
-28.78
-36.17
-44.76
-54.06
-63.00
-69.92
-72.82
-69.96
-60.44
-44.65
-24.23
-1.74
20.02
38.62
52.44
60.74
63.51
61.30
55.05
46.00
35.61
25.45
16.90
10.88
7.62
6.65
6.96
7.34
6.90
5.18
2.28
-1.36
-5.28
-9.22
-13.17
-17.31
-21.95
-27.44
-34.14
-42.28
-51.63
-61.32
-69.64
-74.35
-73.28
-65.19
-50.23
-30.05
-7.31
15.10
34.69
49.75
59.35
63.25
61.65
55.36
45.69
34.42
23.49
14.54
8.49
5.40
4.54
4.73
4.84
4.13
2.33
-0.40
-3.66
-7.13
-10.66
-14.30
-18.39
-23.40
-29.87
-38.17
-48.18
-59.07
-69.14
-76.17
-77.90
-72.80
-60.54
-42.17
-19.82
3.88
26.29
45.26
59.21
67.21
68.93
64.78
55.87
44.02
31.40
20.14
11.80
7.07
5.62
6.39
7.94
8.99
8.75
7.09
4.31
0.90
-2.82
-6.88
-11.63
-17.66
-25.48
-35.36
-46.94
-59.16
-70.14
-77.50
-78.90
-72.78
-58.92
-38.60
-14.39
10.66
33.64
52.36
65.48
72.48
73.40
68.78
59.67
47.60
34.56
22.60
13.45
7.99
6.08
6.59
7.90
8.43
7.19
4.00
-0.66
-6.00
-11.37
-16.51
-21.61
-27.24
-34.15
-42.96
-53.90
-66.41
-78.90
-88.81
-93.23
-89.73
-77.29
-56.79
-30.86
-3.00
23.31
45.51
62.10
72.48
76.60
74.75
67.64
56.51
43.24
30.09
19.13
11.79
8.38
8.15
9.64
11.23
11.59
10.06
6.56
1.54
-4.36
-10.51
-16.51
-22.29
-28.12
-34.57
-42.36
-52.01
-63.58
-76.21
-88.05
-96.42
-98.43
-91.90
-76.13
-52.28
-23.24
7.21
35.35
58.40
74.90
84.58
87.92
85.76
79.15
69.36
57.97
46.79
37.47
31.18
28.15
27.77
28.80
29.83
29.76
27.99
24.52
19.72
14.07
7.98
1.67
-4.81
-11.52
-18.58
-26.18
-34.60
-44.23
-55.47
-68.39
-82.20
-95.02
-103.95
-105.78
-98.03
-79.99
-53.23
-21.18
11.77
41.55
65.29
81.62
90.44
92.42
88.61
80.37
69.27
57.14
45.80
36.74
30.81
28.09
28.00
29.57
31.74
33.60
34.47
33.97
31.89
28.25
23.19
16.95
9.86
2.25
-5.58
-13.46
-21.33
-29.37
-38.00
-47.71
-58.80
-70.82
-82.28
-90.59
-92.73
-86.19
-70.05
-45.56
-15.87
14.90
42.88
65.34
80.96
89.53
91.47
87.52
78.72
66.63
53.29
40.95
31.50
25.88
23.90
24.48
26.20
27.84
28.77
28.92
28.45
27.43
25.61
22.53
17.74
11.15
3.10
-5.64
-14.21
-22.02
-28.91
-35.25
-41.81
-49.49
-58.92
-70.10
-81.99
-92.56
-99.04
-98.62
-89.40
-71.06
-45.19
-14.85
16.18
44.47
67.49
83.88
93.30
96.07
93.01
85.40
74.92
63.56
53.18
45.22
40.29
38.19
38.11
39.00
39.94
40.29
39.80
38.37
36.02
32.68
28.27
22.68
15.97
8.36
0.29
-7.69
-15.14
-21.87
-28.10
-34.41
-41.57
-50.17
-60.15
-70.53
-79.30
-83.87
-81.78
-71.57
-53.37
-29.03
-1.67
25.16
48.35
65.79
76.58
80.79
79.26
73.19
64.04
53.33
42.61
33.21
26.13
21.81
20.11
20.38
21.65
22.84
23.09
21.89
19.11
14.98
9.91
4.38
-1.22
-6.67
-11.93
-17.22
-22.89
-29.45
-37.31
-46.60
-56.85
-66.82
-74.50
-77.49
-73.73
-62.24
-43.67
-20.21
4.91
28.34
47.44
60.71
67.78
69.02
65.27
57.57
47.13
35.37
23.86
14.04
6.94
2.92
1.58
1.99
2.87
3.05
1.81
-1.02
-5.03
-9.54
-13.93
-17.93
-21.74
-25.97
-31.37
-38.61
-47.91
-58.97
-70.66
-81.08
-87.84
-88.47
-81.27
-65.89
-43.69
-17.41
9.53
33.91
53.38
66.71
73.59
74.37
69.81
61.00
49.38
36.69
24.74
15.11
8.75
5.71
5.27
6.12
6.89
6.50
4.52
1.08
-3.25
-7.82
-12.24
-16.50
-20.94
-26.16
-32.74
-41.15
-51.46
-63.09
-74.63
-83.85
-88.13
-85.13
-73.65
-54.15
-28.82
-0.98
25.88
48.80
65.99
76.70
80.97
79.29
72.51
61.84
48.94
35.75
24.17
15.60
10.53
8.49
8.30
8.48
7.83
5.69
2.03
-2.67
-7.74
-12.61
-17.04
-21.19
-25.57
-30.88
-37.82
-46.81
-57.77
-69.83
-81.21
-89.46
-91.91
-86.48
-72.40
-50.66
-23.90
4.31
30.41
51.72
66.82
75.49
78.18
75.69
68.87
58.75
46.67
34.26
23.25
15.01
10.22
8.57
8.98
9.98
10.22
8.92
5.99
1.92
-2.59
-6.98
-11.06
-15.05
-19.35
-24.43
-30.78
-38.76
-48.47
-59.49
-70.56
-79.50
-83.59
-80.39
-68.69
-49.13
-24.09
2.91
28.34
49.43
64.63
73.49
76.24
73.56
66.45
56.22
44.55
33.24
23.89
17.50
14.28
13.63
14.47
15.55
15.81
14.65
11.98
8.08
3.49
-1.30
-5.97
-10.49
-15.14
-20.39
-26.78
-34.77
-44.49
-55.44
-66.31
-75.02
-79.09
-76.40
-65.94
-48.22
-25.32
-0.28
23.73
44.10
59.14
68.11
70.96
68.13
60.47
49.32
36.42
23.78
13.16
5.74
1.80
0.71
1.31
2.26
2.50
1.46
-0.90
-4.19
-7.88
-11.53
-15.03
-18.65
-22.90
-28.39
-35.60
-44.70
-55.38
-66.70
-77.06
-84.33
-86.24
-81.03
-68.03
-48.11
-23.54
2.56
27.02
47.28
61.78
69.92
71.82
68.12
59.94
48.76
36.40
24.70
15.18
8.71
5.36
4.45
4.80
5.14
4.46
2.29
-1.20
-5.44
-9.74
-13.64
-17.17
-20.85
-25.48
-31.89
-40.55
-51.38
-63.49
-75.23
-84.30
-88.17
-84.68
-72.80
-53.08
-27.65
0.20
26.92
49.45
65.78
75.06
77.40
73.60
64.93
53.02
39.76
27.11
16.73
9.70
6.21
5.58
6.53
7.58
7.57
5.89
2.61
-1.76
-6.52
-11.16
-15.60
-20.18
-25.62
-32.73
-42.11
-53.72
-66.65
-78.92
-87.76
-90.28
-84.40
-69.55
-47.07
-19.85
8.52
34.60
55.86
70.82
78.90
80.14
75.07
64.77
51.02
36.13
22.59
12.38
6.42
4.37
4.87
6.09
6.47
5.16
2.11
-2.15
-6.91
-11.72
-16.52
-21.65
-27.63
-35.01
-44.27
-55.62
-68.83
-82.91
-95.87
-104.83
-106.67
-98.99
-81.11
-54.56
-22.73
10.05
39.78
63.71
80.51
90.13
93.09
90.16
82.28
70.72
57.23
43.93
32.83
25.33
21.80
21.47
22.79
24.01
23.73
21.31
16.84
10.96
4.45
-2.12
-8.58
-15.09
-22.04
-29.89
-39.10
-50.03
-62.78
-76.86
-90.86
-102.35
-108.25
-105.61
-92.71
-69.82
-39.36
-5.34
27.81
56.30
77.72
91.20
96.99
96.09
89.86
79.92
68.04
56.04
45.57
37.73
32.94
30.89
30.75
31.47
32.10
31.88
30.31
27.12
22.23
15.79
8.14
-0.23
-8.83
-17.28
-25.43
-33.39
-41.49
-50.32
-60.47
-72.38
-85.81
-99.41
-110.59
-115.94
-112.25
-97.68
-72.66
-39.99
-4.02
30.63
60.24
82.62
96.99
103.55
103.03
96.55
85.71
72.61
59.66
49.01
42.02
38.91
38.84
40.40
42.20
43.36
43.59
42.95
41.54
39.21
35.56
30.15
22.79
13.70
3.53
-6.92
-16.93
-26.07
-34.33
-42.09
-50.07
-59.16
-70.10
-82.97
-96.80
-109.29
-117.18
-117.18
-107.02
-86.42
-57.33
-23.38
11.19
42.66
68.46
87.26
98.62
102.71
100.13
92.08
80.43
67.64
56.25
48.24
44.43
44.34
46.47
48.96
50.33
49.98
48.14
45.51
42.69
39.77
36.22
31.27
24.33
15.39
5.07
-5.62
-15.70
-24.59
-32.26
-39.15
-45.99
-53.64
-62.76
-73.57
-85.53
-97.04
-105.60
-108.24
-102.46
-87.13
-63.03
-32.78
-0.08
31.23
58.07
78.45
91.45
96.97
95.51
88.20
76.79
63.54
50.87
40.82
34.56
32.20
32.84
35.06
37.39
38.76
38.76
37.56
35.65
33.51
31.23
28.49
24.65
19.16
11.83
3.05
-6.32
-15.29
-23.13
-29.71
-35.50
-41.46
-48.67
-57.88
-69.10
-81.32
-92.46
-99.79
-100.55
-92.78
-76.03
-51.55
-22.07
8.94
38.01
62.33
80.07
90.34
93.17
89.37
80.43
68.42
55.62
44.12
35.37
29.98
27.65
27.48
28.38
29.43
30.09
30.15
29.57
28.29
26.15
22.92
18.42
12.68
6.01
-1.08
-8.03
-14.44
-20.24
-25.71
-31.39
-37.95
-45.90
-55.34
-65.66
-75.41
-82.43
-84.29
-79.01
-65.72
-45.19
-19.68
7.62
33.36
54.88
70.53
79.75
82.72
80.06
72.73
61.99
49.40
36.69
25.46
16.82
11.20
8.33
7.49
7.71
8.12
8.04
7.09
5.10
2.12
-1.69
-6.14
-10.98
-16.02
-21.14
-26.36
-31.89
-38.10
-45.50
-54.42
-64.65
-75.14
-83.98
-88.67
-86.91
-77.34
-60.14
-37.11
-11.20
14.24
36.33
53.12
63.68
67.92
66.36
59.92
49.86
37.74
25.32
14.27
5.86
0.71
-1.36
-1.25
-0.25
0.39
-0.20
-2.29
-5.55
-9.30
-12.98
-16.36
-19.68
-23.58
-28.73
-35.69
-44.68
-55.38
-66.87
-77.57
-85.41
-88.20
-84.21
-72.71
-54.35
-31.08
-5.67
18.91
40.04
55.84
65.24
67.93
64.39
55.80
43.95
30.98
18.95
9.46
3.31
0.36
-0.21
0.35
0.79
0.19
-1.78
-5.02
-9.05
-13.35
-17.66
-22.07
-27.07
-33.34
-41.46
-51.52
-62.89
-74.08
-82.92
-87.01
-84.42
-74.19
-56.78
-34.01
-8.57
16.55
38.71
55.93
67.06
71.64
69.85
62.51
51.10
37.64
24.39
13.33
5.60
1.32
-0.39
-0.82
-1.22
-2.31
-4.17
-6.55
-9.16
-12.02
-15.52
-20.21
-26.64
-35.16
-45.81
-58.06
-70.74
-81.88
-88.95
-89.41
-81.57
-65.17
-41.81
-14.47
13.17
37.74
56.77
68.96
73.98
72.27
64.86
53.30
39.64
26.14
14.85
7.07
3.03
1.90
2.19
2.44
1.68
-0.35
-3.32
-6.78
-10.45
-14.45
-19.29
-25.59
-33.95
-44.66
-57.39
-70.99
-83.34
-91.60
-92.91
-85.26
-68.36
-43.84
-14.95
14.44
40.84
61.79
76.03
83.23
83.63
77.97
67.46
53.93
39.61
26.81
17.23
11.57
9.34
9.18
9.43
8.68
6.22
2.09
-3.22
-9.04
-14.93
-20.88
-27.33
-35.08
-44.97
-57.35
-71.65
-86.02
-97.51
-102.73
-98.87
-84.77
-61.42
-31.74
0.27
30.62
56.26
75.39
87.31
92.03
90.03
82.21
70.05
55.58
41.23
29.24
21.15
17.33
16.96
18.35
19.60
19.14
16.23
10.97
4.15
-3.27
-10.58
-17.54
-24.47
-31.99
-40.82
-51.58
-64.55
-79.38
-94.85
-108.65
-117.66
-118.56
-108.92
-88.18
-58.03
-22.14
14.84
48.51
75.60
94.37
104.50
106.67
102.22
92.96
80.99
68.52
57.51
49.33
44.50
42.71
43.06
44.41
45.73
46.22
45.39
42.94
38.79
32.98
25.71
17.39
8.54
-0.32
-8.87
-17.06
-25.20
-33.91
-43.91
-55.82
-69.68
-84.53
-98.18
-107.41
-108.74
-99.63
-79.41
-49.86
-14.76
21.14
53.41
78.95
96.29
105.36
106.97
102.48
93.56
82.15
70.35
60.04
52.52
48.19
46.57
46.60
47.12
47.20
46.39
44.63
41.98
38.44
33.88
28.12
21.09
12.94
4.11
-4.83
-13.33
-21.11
-28.28
-35.37
-43.24
-52.75
-64.27
-77.23
-89.81
-99.07
-101.69
-95.01
-78.10
-52.24
-20.64
12.51
43.17
68.33
86.34
96.65
99.50
95.67
86.48
73.83
60.03
47.40
37.67
31.57
28.83
28.41
29.04
29.69
29.72
28.84
26.93
23.92
19.69
14.18
7.46
-0.20
-8.33
-16.42
-24.08
-31.19
-37.97
-45.03
-53.17
-63.02
-74.71
-87.33
-98.80
-106.16
-106.32
-97.09
-78.10
-51.11
-19.60
12.24
40.61
62.83
77.61
84.78
84.91
79.05
68.68
55.68
42.14
30.07
20.92
15.27
12.88
12.91
14.31
16.07
17.33
17.44
15.86
12.33
6.90
0.00
-7.70
-15.51
-23.01
-30.16
-37.36
-45.28
-54.66
-65.99
-79.22
-93.42
-106.54
-115.63
-117.53
-109.83
-91.83
-64.96
-32.51
1.29
32.48
58.13
76.65
87.61
91.32
88.57
80.62
69.16
56.27
44.09
34.29
27.78
24.58
24.03
25.15
26.89
28.32
28.71
27.54
24.55
19.83
13.71
6.70
-0.74
-8.33
-16.00
-23.84
-32.12
-41.20
-51.44
-63.06
-75.65
-87.84
-97.16
-100.53
-95.24
-80.05
-55.78
-25.29
7.38
38.10
63.58
81.88
92.30
95.16
91.45
82.69
70.80
57.81
45.67
35.80
28.97
25.26
24.17
24.88
26.39
27.70
27.92
26.43
22.98
17.75
11.27
4.17
-3.01
-10.06
-17.04
-24.32
-32.34
-41.58
-52.30
-64.41
-77.16
-88.95
-97.36
-99.59
-93.29
-77.48
-53.10
-22.98
8.89
38.48
62.65
79.73
89.35
92.10
89.00
81.31
70.44
57.95
45.51
34.60
26.33
21.18
18.94
18.89
19.99
21.12
21.35
20.08
17.10
12.66
7.21
1.26
-4.77
-10.71
-16.60
-22.66
-29.23
-36.75
-45.67
-56.19
-67.91
-79.51
-88.74
-92.83
-89.30
-76.86
-56.04
-29.17
0.23
28.42
52.30
69.91
80.49
84.18
81.76
74.39
63.58
51.04
38.53
27.61
19.36
14.22
12.01
12.01
13.20
14.47
14.90
13.93
11.47
7.82
3.55
-0.86
-5.14
-9.38
-13.90
-19.13
-25.41
-33.00
-41.96
-52.01
-62.37
-71.49
-77.24
-77.28
-69.82
-54.37
-32.12
-5.78
21.16
45.24
63.85
75.60
80.23
78.31
70.98
59.77
46.44
32.84
20.74
11.41
5.44
2.64
2.07
2.49
2.71
1.93
-0.08
-3.10
-6.72
-10.56
-14.45
-18.43
-22.78
-27.84
-34.07
-41.89
-51.45
-62.28
-72.94
-81.13
-84.15
-79.85
-67.38
-47.71
-23.33
2.52
26.75
46.97
61.69
70.07
71.82
67.17
57.02
43.14
27.91
13.88
3.07
-3.61
-6.51
-6.95
-6.61
-6.94
-8.66
-11.72
-15.58
-19.53
-23.17
-26.49
-29.97
-34.29
-40.16
-48.08
-58.11
-69.69
-81.42
-91.16
-96.35
-94.65
-84.72
-66.85
-42.92
-16.00
10.47
33.55
51.23
62.49
67.13
65.49
58.40
47.21
33.79
20.33
8.88
0.84
-3.42
-4.55
-3.94
-3.11
-3.25
-4.90
-7.93
-11.80
-15.96
-20.08
-24.22
-28.86
-34.75
-42.64
-53.02
-65.60
-79.09
-91.08
-98.57
-98.67
-89.65
-71.56
-46.31
-17.14
12.28
38.73
59.94
74.66
82.43
83.43
78.31
68.25
55.09
41.06
28.47
19.10
13.73
11.96
12.41
13.31
13.15
11.15
7.45
2.74
-2.10
-6.60
-10.82
-15.37
-21.07
-28.72
-38.78
-51.09
-64.63
-77.44
-86.81
-89.88
-84.49
-69.99
-47.60
-20.17
8.70
35.53
57.68
73.58
82.54
84.48
79.87
69.79
56.04
41.04
27.32
16.95
10.93
9.03
9.96
11.94
13.33
13.05
10.81
6.93
2.08
-3.06
-8.10
-13.10
-18.51
-25.09
-33.54
-44.18
-56.53
-69.09
-79.46
-84.79
-82.64
-71.74
-52.52
-27.07
1.37
29.25
53.46
71.82
83.20
87.38
84.82
76.61
64.41
50.30
36.64
25.52
18.30
15.29
15.68
17.90
20.20
21.28
20.60
18.34
15.14
11.60
8.00
4.22
-0.20
-5.79
-13.01
-22.12
-33.00
-44.95
-56.50
-65.48
-69.40
-66.08
-54.50
-35.23
-10.42
16.69
42.59
64.19
79.32
86.83
86.48
78.98
65.84
49.40
32.39
17.45
6.48
0.17
-2.04
-1.62
-0.33
0.40
-0.20
-2.16
-5.05
-8.28
-11.49
-14.69
-18.36
-23.28
-30.33
-40.03
-52.13
-65.30
-77.14
-84.68
-85.19
-77.06
-60.42
-37.13
-10.21
16.92
41.23
60.42
73.00
78.26
76.19
67.69
54.58
39.45
25.15
13.94
6.97
4.00
3.70
4.32
4.32
2.86
-0.19
-4.42
-9.24
-14.19
-19.18
-24.47
-30.63
-38.35
-48.15
-59.92
-72.61
-84.15
-91.72
-92.55
-84.71
-67.89
-43.57
-14.68
15.18
42.52
64.63
79.83
87.39
87.44
80.87
69.30
54.93
40.27
27.62
18.57
13.57
11.98
12.34
12.98
12.51
10.28
6.38
1.36
-4.13
-9.65
-15.22
-21.25
-28.50
-37.72
-49.32
-62.91
-76.95
-88.81
-95.28
-93.51
-82.00
-61.24
-33.66
-2.93
27.03
53.02
72.94
85.81
91.39
89.99
82.48
70.37
55.87
41.61
29.99
22.61
19.71
20.24
22.31
23.93
23.69
21.12
16.65
11.16
5.49
0.06
-5.22
-10.87
-17.63
-26.19
-37.00
-49.99
-64.24
-77.85
-88.04
-91.70
-86.33
-70.98
-46.68
-16.45
15.63
45.47
69.94
87.24
96.88
99.22
95.11
85.79
72.86
58.32
44.41
33.11
25.71
22.40
22.28
23.71
24.94
24.57
21.96
17.22
11.03
4.30
-2.19
-8.02
-13.31
-18.60
-24.82
-32.92
-43.46
-56.27
-70.05
-82.43
-90.40
-91.03
-82.41
-64.38
-38.61
-8.27
22.77
50.88
73.31
88.44
95.77
95.66
89.16
77.92
64.02
49.79
37.38
28.36
23.37
22.06
23.30
25.54
27.26
27.33
25.17
20.86
14.93
8.16
1.28
-5.31
-11.66
-18.27
-25.89
-35.24
-46.70
-59.98
-73.82
-86.02
-93.74
-94.21
-85.58
-67.63
-42.03
-12.03
18.41
45.62
66.84
80.61
86.61
85.37
78.07
66.40
52.38
38.18
25.81
16.69
11.39
9.55
10.08
11.50
12.35
11.60
8.82
4.23
-1.56
-7.88
-14.22
-20.46
-26.78
-33.55
-41.21
-50.17
-60.80
-73.16
-86.69
-99.83
-109.95
-113.80
-108.55
-92.82
-67.49
-35.57
-1.39
30.64
57.12
76.11
87.13
90.64
87.73
79.76
68.39
55.47
42.93
32.50
25.32
21.75
21.30
22.80
24.77
25.80
24.94
21.86
16.80
10.33
3.07
-4.53
-12.28
-20.18
-28.32
-36.91
-46.25
-56.72
-68.64
-81.88
-95.38
-106.91
-113.40
-111.72
-99.87
-77.86
-47.91
-13.98
19.46
48.57
70.91
85.50
92.51
92.70
87.22
77.52
65.35
52.75
41.67
33.54
29.03
27.92
29.23
31.65
33.83
34.70
33.67
30.61
25.82
19.80
13.14
6.26
-0.64
-7.66
-15.07
-23.27
-32.68
-43.63
-56.19
-69.85
-83.26
-94.10
-99.43
-96.52
-83.79
-61.61
-32.43
-0.16
30.90
57.18
76.44
87.92
91.94
89.48
81.90
70.88
58.32
46.15
36.00
28.89
24.99
23.78
24.28
25.44
26.38
26.50
25.44
23.05
19.33
14.33
8.21
1.23
-6.28
-13.98
-21.57
-28.91
-36.11
-43.56
-51.89
-61.68
-73.06
-85.21
-96.12
-102.84
-102.32
-92.38
-72.75
-45.27
-13.49
18.40
46.65
68.70
83.38
90.58
90.90
85.38
75.49
63.09
50.28
39.03
30.69
25.74
23.78
23.87
24.93
26.03
26.58
26.25
24.87
22.29
18.48
13.51
7.59
1.10
-5.62
-12.32
-18.96
-25.75
-33.16
-41.73
-51.85
-63.33
-75.02
-84.73
-89.65
-87.16
-75.78
-55.94
-29.90
-1.24
26.26
49.44
66.39
76.38
79.55
76.62
68.68
57.15
43.76
30.40
18.83
10.39
5.61
4.19
5.08
6.82
7.96
7.48
4.98
0.75
-4.52
-10.06
-15.35
-20.28
-25.17
-30.60
-37.24
-45.67
-56.21
-68.66
-82.08
-94.55
-103.36
-105.59
-98.93
-82.63
-57.94
-27.93
3.32
31.87
54.78
70.58
79.05
80.80
76.86
68.41
56.88
43.93
31.43
21.13
14.23
11.10
11.13
13.00
15.08
15.96
14.85
11.72
7.13
1.85
-3.52
-8.74
-14.04
-19.96
-27.11
-35.97
-46.76
-59.19
-72.28
-84.31
-92.89
-95.51
-90.32
-76.72
-55.80
-30.08
-2.86
22.68
44.15
60.13
70.12
74.18
72.79
66.74
57.28
46.06
34.92
25.58
19.11
15.76
14.89
15.33
15.71
15.02
12.77
9.04
4.32
-0.86
-6.11
-11.38
-16.91
-23.08
-30.36
-39.13
-49.57
-61.46
-73.84
-84.87
-91.93
-92.29
-84.00
-66.79
-42.31
-13.82
14.87
40.39
60.53
74.25
81.36
82.11
77.04
67.14
53.98
39.73
26.68
16.70
10.73
8.60
9.26
11.20
12.99
13.61
12.61
10.06
6.35
1.87
-3.17
-8.85
-15.47
-23.42
-33.03
-44.32
-56.91
-69.75
-81.12
-88.73
-90.20
-83.73
-68.82
-46.59
-19.63
8.61
34.67
55.76
70.17
77.27
77.32
71.27
60.59
47.22
33.33
20.99
11.74
6.29
4.33
4.78
6.16
7.08
6.68
4.66
1.30
-2.86
-7.28
-11.67
-16.07
-20.90
-26.85
-34.68
-44.80
-56.80
-69.14
-79.25
-84.10
-81.19
-69.43
-49.61
-24.25
3.18
29.19
50.98
66.76
75.65
77.52
72.81
62.64
48.80
33.68
19.83
9.30
3.10
0.98
1.57
3.08
3.90
3.20
0.94
-2.36
-6.06
-9.86
-13.89
-18.62
-24.71
-32.68
-42.80
-54.80
-67.68
-79.51
-87.70
-89.47
-82.73
-66.89
-43.24
-14.67
15.09
42.42
64.46
79.47
86.76
86.48
79.55
67.57
52.72
37.50
24.20
14.44
8.75
6.58
6.55
7.00
6.60
4.61
1.02
-3.69
-8.90
-14.22
-19.64
-25.60
-32.79
-41.95
-53.56
-67.42
-82.28
-95.71
-104.48
-105.36
-96.24
-77.01
-49.74
-18.13
13.61
41.90
64.34
79.80
87.98
89.14
83.91
73.53
59.90
45.41
32.57
23.22
18.10
16.64
17.21
17.82
16.78
13.24
7.34
-0.11
-8.07
-15.81
-23.16
-30.51
-38.55
-48.02
-59.41
-72.76
-87.48
-102.01
-113.92
-120.08
-117.58
-104.69
-81.69
-51.07
-16.93
16.25
44.72
66.22
80.00
86.35
86.08
80.21
70.04
57.31
44.16
32.77
24.77
20.77
20.15
21.36
22.55
22.22
19.68
15.06
9.12
2.73
-3.48
-9.30
-14.97
-20.95
-27.88
-36.38
-47.02
-60.07
-75.16
-90.85
-104.42
-112.27
-110.90
-98.09
-73.97
-41.16
-4.07
32.34
63.92
88.03
103.68
111.07
111.10
105.13
94.83
82.23
69.46
58.46
50.58
46.32
45.33
46.63
48.96
51.10
52.09
51.37
48.73
44.31
38.35
31.16
23.02
14.15
4.77
-4.94
-14.89
-25.25
-36.43
-49.05
-63.39
-78.94
-93.94
-105.40
-109.76
-103.99
-86.77
-59.18
-24.53
12.48
47.13
75.69
96.03
107.59
110.91
107.26
98.34
86.14
72.82
60.38
50.37
43.53
39.80
38.43
38.41
38.73
38.67
37.76
35.74
32.42
27.72
21.70
14.53
6.56
-1.82
-10.23
-18.47
-26.55
-34.68
-43.28
-52.91
-63.99
-76.44
-89.20
-100.13
-106.20
-104.33
-92.50
-70.62
-40.77
-6.79
26.86
56.15
78.32
92.16
97.81
96.38
89.54
79.24
67.42
55.91
46.13
38.95
34.61
32.78
32.70
33.41
33.99
33.68
31.92
28.47
23.34
16.80
9.33
1.51
-6.09
-13.16
-19.72
-26.16
-33.04
-40.96
-50.35
-61.26
-73.15
-84.77
-94.08
-98.48
-95.52
-83.63
-62.93
-35.40
-4.52
25.67
51.55
70.68
82.04
85.82
83.01
75.05
63.58
50.32
37.01
25.16
15.94
10.00
7.30
7.23
8.67
10.32
11.00
9.94
6.91
2.24
-3.50
-9.68
-15.91
-22.06
-28.25
-34.77
-42.07
-50.64
-60.96
-73.07
-86.20
-98.54
-107.27
-109.20
-101.79
-84.13
-57.50
-25.16
8.49
39.12
63.50
80.01
88.45
89.62
84.75
75.29
62.78
48.96
35.66
24.51
16.67
12.49
11.47
12.49
14.12
15.05
14.37
11.70
7.17
1.31
-5.22
-11.82
-18.13
-24.18
-30.33
-37.23
-45.61
-56.04
-68.59
-82.39
-95.40
-104.66
-106.91
-99.69
-82.28
-56.20
-24.81
7.67
37.26
61.15
77.89
87.22
89.56
85.80
77.11
65.03
51.42
38.30
27.44
20.00
16.29
15.67
16.84
18.26
18.58
17.04
13.56
8.62
2.91
-2.93
-8.61
-14.16
-19.89
-26.24
-33.73
-42.83
-53.80
-66.39
-79.50
-91.10
-98.41
-98.60
-89.70
-71.38
-45.27
-14.67
16.38
44.15
65.92
80.42
87.53
87.92
82.70
73.23
61.07
47.97
35.67
25.59
18.52
14.48
12.81
12.44
12.30
11.53
9.73
6.86
3.12
-1.22
-5.94
-10.94
-16.21
-21.75
-27.67
-34.20
-41.76
-50.72
-61.10
-72.07
-81.76
-87.48
-86.46
-76.90
-58.74
-33.85
-5.53
22.47
46.91
65.62
77.65
82.93
82.04
75.91
65.87
53.54
40.75
29.23
20.28
14.56
11.94
11.61
12.40
13.10
12.77
11.01
7.92
3.95
-0.28
-4.29
-7.89
-11.22
-14.79
-19.37
-25.76
-34.49
-45.40
-57.35
-68.21
-75.25
-75.85
-68.40
-52.84
-30.80
-5.15
20.67
43.45
60.67
70.81
73.38
68.86
58.66
44.84
29.79
15.82
4.71
-2.63
-6.20
-6.78
-5.65
-4.16
-3.41
-3.99
-5.90
-8.76
-12.03
-15.32
-18.61
-22.26
-26.87
-33.11
-41.46
-51.93
-63.79
-75.37
-84.24
-87.68
-83.53
-70.95
-50.87
-25.84
0.75
25.51
45.79
60.05
67.69
68.79
63.99
54.42
41.71
27.89
15.03
4.81
-1.94
-5.32
-6.30
-6.21
-6.31
-7.44
-9.78
-13.06
-16.81
-20.62
-24.47
-28.78
-34.24
-41.60
-51.32
-63.15
-76.05
-88.02
-96.53
-98.95
-93.38
-79.18
-57.34
-30.27
-1.24
26.37
49.73
66.93
76.98
79.76
75.83
66.32
52.99
38.05
23.90
12.63
5.50
2.58
2.84
4.53
5.88
5.68
3.58
0.00
-4.36
-8.94
-13.64
-18.79
-24.98
-32.78
-42.61
-54.50
-67.87
-81.30
-92.41
-98.27
-96.14
-84.48
-63.68
-36.07
-5.34
24.54
50.31
69.91
82.44
87.83
86.54
79.45
67.95
53.99
39.90
27.90
19.64
15.65
15.26
16.90
18.68
19.06
17.29
13.51
8.42
2.88
-2.56
-7.81
-13.25
-19.53
-27.37
-37.31
-49.46
-63.16
-76.73
-87.52
-92.45
-88.89
-75.63
-53.49
-25.17
5.51
34.66
59.29
77.60
88.93
93.38
91.46
84.04
72.45
58.50
44.39
32.22
23.50
18.76
17.49
18.35
19.69
20.09
18.76
15.61
11.11
6.00
0.83
-4.21
-9.37
-15.18
-22.28
-31.16
-41.97
-54.37
-67.29
-78.83
-86.43
-87.38
-79.63
-62.58
-37.57
-7.57
23.50
51.79
74.36
89.56
96.89
96.79
90.31
79.00
64.87
50.21
37.28
27.75
22.37
20.77
21.70
23.50
24.61
23.99
21.31
16.88
11.37
5.48
-0.28
-5.87
-11.68
-18.43
-26.92
-37.75
-50.85
-65.27
-78.99
-89.21
-93.01
-88.21
-74.10
-51.80
-24.04
5.59
33.55
56.97
74.01
83.82
86.31
82.06
72.30
58.84
43.98
30.12
19.25
12.46
9.72
9.92
11.33
12.23
11.42
8.58
4.13
-1.11
-6.42
-11.50
-16.56
-22.17
-29.03
-37.74
-48.59
-61.33
-74.85
-87.09
-95.19
-96.20
-88.00
-70.23
-44.55
-14.28
16.63
44.60
67.13
82.91
91.46
92.89
87.74
77.12
62.89
47.45
33.36
22.56
15.98
13.24
12.97
13.44
13.11
11.19
7.66
3.08
-1.87
-6.74
-11.52
-16.60
-22.59
-30.17
-39.86
-51.93
-66.06
-81.04
-94.57
-103.47
-104.51
-95.44
-75.99
-48.13
-15.62
17.10
46.10
68.68
83.57
90.61
90.35
83.80
72.48
58.35
43.77
31.03
21.88
17.07
16.21
17.90
20.29
21.55
20.45
16.57
10.35
2.78
-5.00
-12.10
-18.22
-23.60
-28.90
-34.96
-42.53
-52.05
-63.39
-75.59
-86.71
-93.93
-94.15
-84.94
-65.52
-37.32
-3.75
30.70
61.79
86.42
103.11
111.70
112.85
107.65
97.47
84.07
69.58
56.25
45.88
39.36
36.50
36.23
37.14
37.94
37.83
36.40
33.58
29.42
24.03
17.59
10.40
2.84
-4.76
-12.18
-19.54
-27.23
-35.92
-46.27
-58.58
-72.33
-85.87
-96.45
-100.81
-96.16
-81.12
-56.43
-24.85
9.60
42.64
70.73
91.58
104.27
108.94
106.56
98.76
87.59
75.37
64.28
55.96
51.17
49.84
51.16
54.10
57.67
61.19
64.24
66.55
67.89
67.95
66.54
63.62
59.49
54.75
50.17
46.43
43.91
42.49
41.55
40.10
36.95
31.21
22.64
12.02
1.22
-7.26
-11.01
-8.62
-0.22
12.44
26.57
39.20
47.84
51.02
48.19
39.57
26.01
8.91
-9.83
-28.04
-43.69
-55.40
-62.76
-66.24
-66.94
-66.05
-64.51
-62.85
-61.37
-60.22
-59.64
-59.90
-61.23
-63.75
-67.39
-71.93
-77.06
-82.37
-87.42
-91.82
-95.44
-98.53
-101.82
-106.28
-112.61
-120.63
-128.86
-134.56
-134.45
-125.86
-107.77
-81.34
-49.70
-16.89
13.19
37.74
55.24
65.29
68.20
64.76
56.18
44.27
31.29
19.56
10.87
5.96
4.45
5.23
7.01
8.90
10.45
11.52
11.88
11.15
8.81
4.52
-1.66
-9.21
-17.35
-25.29
-32.45
-38.60
-43.88
-48.84
-54.36
-61.46
-70.88
-82.48
-94.78
-104.93
-109.28
-104.51
-88.87
-62.92
-29.56
6.86
41.76
71.52
94.03
108.66
115.81
116.40
111.62
102.91
91.98
80.70
70.79
63.37
58.74
56.34
55.09
53.77
51.46
47.73
42.52
36.00
28.31
19.55
9.77
-0.82
-11.86
-22.82
-33.21
-42.81
-51.84
-60.92
-70.89
-82.33
-94.97
-107.36
-116.92
-120.54
-115.63
-101.09
-77.90
-48.87
-17.90
11.19
35.48
53.33
64.26
68.54
66.91
60.45
50.59
39.10
27.88
18.62
12.45
9.74
10.10
12.60
16.00
19.13
21.10
21.49
20.26
17.70
14.27
10.46
6.65
3.02
-0.59
-4.66
-9.90
-16.98
-26.06
-36.40
-46.22
-52.87
-53.54
-46.13
-30.02
-6.40
22.03
51.85
79.73
103.17
120.72
131.88
136.87
136.27
130.95
121.98
110.67
98.42
86.57
76.06
67.31
60.03
53.41
46.39
38.10
28.16
16.84
4.87
-6.89
-17.87
-28.05
-37.92
-48.28
-59.94
-73.40
-88.54
-104.46
-119.44
-131.09
-136.92
-134.94
-124.41
-106.23
-82.74
-57.20
-32.97
-12.84
1.38
8.90
9.87
5.12
-3.89
-15.30
-27.04
-37.26
-44.59
-48.51
-49.29
-47.81
-45.22
-42.59
-40.67
-39.79
-39.89
-40.73
-42.09
-43.99
-46.76
-51.04
-57.55
-66.79
-78.60
-91.81
-104.18
-112.74
-114.41
-107.03
-90.04
-64.81
-34.36
-2.54
26.91
51.11
68.36
77.99
80.18
75.74
66.13
53.38
39.95
28.18
19.80
15.43
14.46
15.43
16.57
16.52
14.61
11.01
6.32
1.22
-3.97
-9.45
-15.82
-23.89
-34.25
-46.87
-60.84
-74.27
-84.52
-88.86
-85.08
-72.31
-51.30
-24.30
5.46
34.51
59.75
78.86
90.40
93.85
89.72
79.49
65.59
50.90
38.02
28.72
23.43
21.37
21.05
20.89
19.75
17.16
13.18
8.10
2.25
-4.14
-11.00
-18.49
-27.05
-37.37
-50.00
-64.81
-80.40
-93.93
-101.68
-100.24
-87.78
-64.90
-34.51
-0.87
31.64
59.60
80.84
94.34
99.81
97.59
88.68
75.01
59.26
44.36
32.74
25.64
22.83
22.96
24.10
24.55
23.28
20.11
15.46
9.99
4.14
-2.09
-9.24
-18.12
-29.51
-43.59
-59.51
-75.23
-87.70
-93.68
-90.60
-77.47
-55.18
-26.34
5.52
36.67
63.88
84.76
97.77
102.32
98.80
88.64
74.22
58.44
44.09
33.14
26.38
23.36
22.79
23.10
23.00
21.71
19.04
15.24
10.63
5.48
-0.25
-6.92
-15.17
-25.57
-38.29
-52.57
-66.49
-77.24
-81.74
-77.65
-64.18
-42.36
-14.80
15.11
43.89
68.57
86.91
97.47
99.75
94.28
82.69
67.52
51.67
37.76
27.51
21.46
19.01
18.85
19.41
19.36
17.93
14.96
10.77
5.81
0.41
-5.49
-12.40
-21.03
-32.04
-45.48
-60.40
-74.67
-85.25
-88.88
-83.16
-67.34
-42.82
-12.75
18.76
47.77
71.23
87.41
95.72
96.44
90.50
79.38
65.08
49.97
36.40
26.26
20.43
18.64
19.62
21.52
22.60
21.70
18.57
13.72
8.07
2.41
-2.94
-8.23
-14.19
-21.61
-31.14
-42.98
-56.66
-70.93
-83.61
-91.93
-92.99
-84.67
-66.39
-39.59
-7.51
25.61
55.63
79.31
94.88
101.93
101.10
93.76
81.79
67.38
52.77
40.01
30.48
24.80
22.72
23.28
25.15
26.86
27.20
25.40
21.34
15.51
8.78
2.05
-4.09
-9.64
-15.12
-21.41
-29.43
-39.81
-52.54
-66.66
-80.14
-90.10
-93.32
-87.30
-71.08
-45.79
-14.50
18.62
49.34
74.30
91.52
100.37
101.29
95.42
84.43
70.30
55.21
41.28
30.22
22.98
19.67
19.52
21.18
23.10
23.94
22.84
19.55
14.35
7.86
0.80
-6.27
-13.13
-19.96
-27.27
-35.83
-46.34
-59.19
-73.92
-89.05
-101.98
-109.50
-108.54
-97.29
-75.94
-46.84
-13.98
18.17
45.75
66.33
78.93
83.78
81.79
74.24
62.72
49.09
35.38
23.49
14.77
9.81
8.28
9.16
11.02
12.48
12.46
10.43
6.48
1.17
-4.69
-10.42
-15.70
-20.70
-25.94
-32.09
-39.81
-49.58
-61.52
-75.13
-88.99
-100.60
-106.80
-104.49
-91.82
-69.02
-38.61
-4.77
27.89
55.55
75.87
88.12
92.67
90.50
82.85
71.25
57.49
43.59
31.45
22.45
17.10
15.02
15.14
16.18
16.99
16.78
15.20
12.19
7.89
2.51
-3.69
-10.41
-17.44
-24.64
-32.14
-40.35
-49.89
-61.19
-74.03
-87.09
-97.88
-103.14
-99.90
-86.51
-63.42
-33.31
-0.34
31.05
57.31
76.38
87.75
91.99
90.10
83.29
72.85
60.28
47.33
35.79
27.09
21.94
20.15
20.72
22.26
23.38
23.10
21.03
17.31
12.36
6.69
0.66
-5.61
-12.13
-18.97
-26.17
-33.87
-42.34
-52.05
-63.36
-75.96
-88.42
-98.03
-101.47
-95.85
-79.97
-54.94
-24.05
8.31
37.91
61.70
78.25
87.37
89.65
85.96
77.36
65.17
51.13
37.24
25.44
17.12
12.82
12.10
13.73
16.10
17.76
17.71
15.67
11.93
7.19
2.11
-2.87
-7.67
-12.46
-17.56
-23.32
-30.09
-38.23
-47.93
-58.92
-70.10
-79.43
-84.28
-82.12
-71.51
-52.74
-27.94
-0.44
26.11
48.68
65.30
75.12
78.13
74.94
66.62
54.71
41.13
27.98
17.14
9.81
6.26
5.89
7.44
9.45
10.66
10.35
8.40
5.12
1.06
-3.33
-7.92
-12.83
-18.43
-25.14
-33.33
-43.18
-54.52
-66.58
-77.82
-85.97
-88.49
-83.38
-69.97
-49.31
-24.05
2.38
26.69
46.46
60.27
67.56
68.34
63.07
52.79
39.22
24.60
11.25
0.97
-5.44
-8.29
-8.72
-8.19
-8.03
-9.09
-11.61
-15.42
-20.01
-24.81
-29.43
-33.78
-38.15
-43.20
-49.77
-58.55
-69.61
-82.00
-93.59
-101.33
-102.08
-93.71
-75.97
-50.75
-21.50
7.76
33.63
53.91
67.61
74.56
75.06
69.69
59.50
46.21
32.09
19.61
10.70
6.24
5.80
7.88
10.50
11.95
11.33
8.69
4.79
0.50
-3.60
-7.55
-11.91
-17.43
-24.81
-34.48
-46.50
-60.38
-74.86
-87.75
-96.13
-97.06
-88.51
-70.27
-44.25
-14.00
16.38
43.32
64.47
78.77
86.12
86.94
81.95
72.25
59.45
45.61
32.91
23.10
17.08
14.67
14.77
15.81
16.27
15.20
12.34
8.06
3.02
-2.20
-7.37
-12.65
-18.44
-25.21
-33.49
-43.63
-55.68
-68.95
-81.72
-91.31
-94.58
-88.95
-73.47
-49.35
-19.75
11.22
39.65
62.78
79.21
88.57
91.09
87.30
78.03
64.72
49.39
34.46
22.12
13.78
9.67
8.92
9.97
11.12
11.09
9.22
5.55
0.58
-4.98
-10.53
-15.77
-20.82
-26.18
-32.61
-40.95
-51.79
-65.03
-79.59
-93.25
-102.95
-105.53
-98.64
-81.65
-56.00
-24.92
7.52
37.42
61.90
79.45
89.70
93.05
90.29
82.52
71.20
58.15
45.45
35.01
28.18
25.33
25.84
28.33
31.12
32.81
32.59
30.36
26.51
21.68
16.39
10.92
5.26
-0.79
-7.56
-15.45
-24.83
-35.87
-48.24
-60.74
-71.29
-77.13
-75.69
-65.42
-46.56
-21.20
7.22
34.86
58.44
75.71
85.64
88.14
83.83
73.95
60.29
45.11
30.80
19.41
12.13
9.08
9.36
11.40
13.49
14.30
13.14
10.07
5.74
0.96
-3.64
-7.87
-12.10
-17.02
-23.46
-32.07
-42.99
-55.64
-68.57
-79.55
-85.88
-85.09
-75.73
-57.92
-33.55
-5.77
21.81
45.95
64.34
75.71
79.74
76.84
68.05
55.03
39.93
25.11
12.66
3.94
-0.75
-2.14
-1.71
-1.10
-1.63
-3.95
-7.92
-12.94
-18.19
-23.14
-27.70
-32.28
-37.66
-44.70
-54.10
-66.00
-79.70
-93.46
-104.55
-109.79
-106.48
-93.30
-70.90
-41.85
-9.97
20.77
47.07
66.87
79.22
84.12
82.15
74.39
62.46
48.49
34.83
23.63
16.29
13.14
13.38
15.48
17.73
18.77
17.97
15.35
11.39
6.66
1.55
-3.87
-9.79
-16.58
-24.71
-34.61
-46.50
-60.02
-73.86
-85.73
-92.67
-91.80
-81.42
-61.64
-34.62
-3.92
26.43
52.97
73.33
86.41
92.02
90.59
83.01
70.76
55.88
40.83
28.01
19.11
14.70
14.05
15.54
17.25
17.70
16.13
12.59
7.67
2.09
-3.63
-9.30
-15.03
-21.17
-28.23
-36.72
-47.07
-59.29
-72.61
-85.24
-94.48
-97.28
-91.19
-75.31
-50.85
-20.86
10.60
39.55
63.06
79.51
88.49
90.37
85.99
76.58
63.84
49.85
36.79
26.49
19.98
17.25
17.40
19.01
20.60
21.03
19.71
16.59
12.04
6.62
0.89
-4.80
-10.38
-15.99
-22.02
-29.00
-37.51
-47.99
-60.31
-73.39
-84.99
-92.05
-91.49
-81.34
-61.56
-34.31
-3.29
27.28
53.80
73.98
86.85
92.47
91.54
85.16
74.77
62.20
49.44
38.35
30.21
25.52
23.84
24.17
25.24
25.99
25.74
24.27
21.64
18.01
13.58
8.50
2.94
-3.02
-9.37
-16.31
-24.30
-33.85
-45.17
-57.69
-69.74
-78.70
-81.66
-76.31
-61.88
-39.56
-12.21
16.39
42.58
63.59
77.88
85.00
85.28
79.53
68.98
55.29
40.52
26.86
16.20
9.61
7.16
7.85
10.00
11.84
12.00
9.87
5.63
0.03
-6.07
-12.00
-17.53
-22.87
-28.57
-35.29
-43.65
-54.02
-66.30
-79.57
-91.96
-100.76
-103.03
-96.42
-80.17
-55.51
-25.51
5.76
34.32
57.21
72.90
81.15
82.58
78.21
69.28
57.29
44.01
31.42
21.30
14.86
12.35
13.03
15.45
17.96
19.20
18.45
15.65
11.23
5.80
-0.14
-6.31
-12.70
-19.47
-26.95
-35.53
-45.63
-57.43
-70.51
-83.57
-94.29
-99.71
-97.07
-84.76
-63.12
-34.52
-2.80
27.80
53.71
72.68
83.91
87.68
84.91
76.85
65.07
51.38
37.83
26.37
18.42
14.55
14.26
16.25
18.85
20.57
20.47
18.29
14.26
8.89
2.75
-3.69
-10.12
-16.45
-22.83
-29.70
-37.75
-47.63
-59.57
-72.93
-85.87
-95.55
-98.82
-93.17
-77.74
-53.70
-24.04
7.21
36.15
59.76
76.34
85.45
87.53
83.60
75.10
63.76
51.44
39.94
30.67
24.43
21.34
20.90
22.14
23.88
25.01
24.70
22.60
18.84
13.92
8.45
2.95
-2.37
-7.62
-13.11
-19.30
-26.59
-35.34
-45.71
-57.45
-69.65
-80.54
-87.66
-88.32
-80.55
-63.78
-39.33
-10.14
19.92
47.06
68.41
82.41
88.72
88.00
81.48
70.80
57.82
44.49
32.59
23.45
17.70
15.25
15.33
16.83
18.52
19.44
18.97
16.97
13.68
9.53
4.91
0.02
-5.16
-10.79
-17.11
-24.29
-32.51
-41.91
-52.47
-63.69
-74.32
-82.28
-85.05
-80.43
-67.37
-46.61
-20.58
7.15
32.93
53.82
68.12
75.36
75.97
70.98
61.71
49.73
36.73
24.48
14.53
7.89
4.78
4.58
5.98
7.44
7.70
6.06
2.54
-2.34
-7.86
-13.43
-18.81
-24.07
-29.51
-35.55
-42.64
-51.19
-61.45
-73.13
-85.14
-95.43
-101.25
-99.90
-89.70
-70.66
-44.67
-15.08
14.29
40.08
59.96
72.84
78.60
77.80
71.38
60.67
47.33
33.33
20.70
11.17
5.68
4.17
5.55
8.12
10.09
10.18
7.92
3.66
-1.84
-7.79
-13.71
-19.51
-25.45
-31.94
-39.45
-48.49
-59.41
-72.16
-85.87
-98.65
-107.66
-109.84
-102.82
-85.90
-60.49
-29.83
1.91
30.75
53.74
69.36
77.31
78.14
72.89
62.92
49.95
35.94
22.91
12.64
6.19
3.70
4.34
6.59
8.72
9.35
7.78
4.14
-0.89
-6.43
-11.85
-16.98
-22.10
-27.70
-34.26
-42.18
-51.78
-63.14
-75.86
-88.70
-99.40
-104.88
-102.13
-89.19
-66.17
-35.41
-0.91
32.81
61.91
83.94
97.94
104.05
103.08
96.18
84.85
70.96
56.69
44.14
34.92
29.74
28.35
29.65
32.17
34.42
35.22
33.87
30.24
24.62
17.63
9.97
2.20
-5.44
-13.04
-20.88
-29.28
-38.51
-48.71
-59.90
-71.75
-83.30
-92.68
-97.24
-94.25
-81.83
-59.95
-30.75
1.90
33.57
60.48
80.28
92.21
96.71
94.86
87.99
77.56
65.23
52.76
41.78
33.46
28.25
25.87
25.47
26.01
26.54
26.34
24.98
22.20
17.91
12.15
5.17
-2.62
-10.69
-18.59
-26.04
-33.14
-40.33
-48.30
-57.78
-69.18
-82.26
-95.74
-107.25
-113.76
-112.29
-100.90
-79.54
-50.22
-16.56
17.11
46.87
69.98
85.11
92.24
92.17
86.26
76.15
63.70
50.88
39.49
30.92
25.87
24.21
25.13
27.44
29.82
31.24
31.11
29.25
25.84
21.23
15.80
9.89
3.70
-2.66
-9.22
-16.15
-23.77
-32.54
-42.80
-54.54
-66.97
-78.38
-86.23
-87.77
-80.92
-65.10
-41.63
-13.50
15.48
41.68
62.44
76.37
83.21
83.41
77.87
67.86
55.01
41.29
28.72
18.91
12.72
10.03
9.90
11.00
11.96
11.82
10.06
6.68
2.01
-3.50
-9.39
-15.33
-21.19
-27.07
-33.32
-40.49
-49.16
-59.73
-72.01
-84.91
-96.36
-103.55
-103.67
-94.84
-76.88
-51.50
-21.97
7.84
34.39
55.23
69.13
75.92
76.07
70.45
60.24
47.05
32.86
19.83
9.77
3.73
1.68
2.57
4.73
6.48
6.58
4.64
0.94
-3.79
-8.86
-13.86
-18.82
-24.15
-30.43
-38.26
-48.09
-60.09
-73.81
-87.98
-100.32
-107.83
-107.52
-97.43
-77.49
-49.79
-18.09
13.37
40.97
62.50
77.13
84.94
86.42
82.19
73.12
60.64
46.71
33.63
23.41
17.20
15.03
15.87
18.11
20.08
20.49
18.72
14.83
9.38
3.12
-3.32
-9.64
-15.93
-22.56
-30.06
-38.99
-49.75
-62.40
-76.22
-89.58
-99.83
-103.87
-99.03
-84.03
-59.71
-28.92
4.24
35.59
61.83
81.07
92.74
97.16
95.18
87.98
77.07
64.28
51.59
40.77
33.06
28.87
27.78
28.78
30.54
31.78
31.53
29.27
25.02
19.22
12.59
5.78
-0.78
-7.09
-13.48
-20.56
-29.01
-39.37
-51.78
-65.66
-79.52
-90.91
-96.83
-94.50
-82.34
-60.67
-31.82
0.40
31.75
58.63
78.69
91.00
95.70
93.65
86.14
74.81
61.60
48.55
37.48
29.61
25.29
24.04
24.75
26.11
27.02
26.74
25.03
22.00
17.91
13.01
7.48
1.47
-4.94
-11.71
-18.94
-26.90
-36.07
-46.81
-58.93
-71.18
-81.21
-86.00
-82.78
-70.13
-48.61
-20.81
9.42
38.05
61.81
78.72
88.11
90.35
86.37
77.55
65.50
52.07
39.10
28.18
20.38
15.98
14.57
15.10
16.26
16.85
16.01
13.44
9.31
4.10
-1.67
-7.63
-13.73
-20.13
-27.25
-35.60
-45.63
-57.53
-70.83
-84.26
-95.59
-102.02
-100.90
-90.58
-71.13
-44.49
-14.06
16.25
42.89
63.42
76.66
82.50
81.56
74.94
64.09
50.82
37.12
24.95
15.86
10.58
8.92
9.80
11.68
13.02
12.75
10.48
6.49
1.47
-3.89
-9.19
-14.41
-19.89
-26.03
-33.27
-41.94
-52.28
-64.22
-77.17
-89.66
-99.26
-103.08
-98.50
-84.24
-60.99
-31.43
0.52
30.79
56.09
74.48
85.34
88.98
86.30
78.56
67.32
54.42
41.78
31.15
23.72
19.91
19.31
20.87
23.19
24.88
24.89
22.71
18.44
12.59
5.86
-1.12
-8.03
-14.86
-21.73
-28.93
-36.81
-45.79
-56.33
-68.56
-81.80
-94.18
-102.76
-104.22
-96.02
-77.47
-50.19
-17.80
15.24
44.80
68.01
83.50
91.17
91.75
86.44
76.77
64.59
51.87
40.47
31.76
26.36
24.10
24.19
25.50
26.90
27.51
26.79
24.56
20.90
16.03
10.24
3.77
-3.15
-10.35
-17.68
-25.02
-32.42
-40.17
-48.77
-58.79
-70.41
-83.00
-94.84
-103.21
-105.08
-98.04
-81.27
-55.89
-24.88
7.81
38.24
63.34
81.26
91.41
94.10
90.34
81.61
69.78
56.97
45.19
36.06
30.35
27.95
28.03
29.39
30.87
31.69
31.43
30.07
27.67
24.33
20.06
14.84
8.75
1.94
-5.26
-12.50
-19.50
-26.24
-33.01
-40.43
-49.16
-59.42
-70.49
-80.50
-86.71
-86.28
-77.29
-59.50
-34.63
-5.86
23.06
48.78
68.95
82.36
88.77
88.60
82.79
72.75
60.24
47.26
35.66
26.76
21.12
18.50
18.10
18.88
19.83
20.21
19.58
17.71
14.60
10.37
5.27
-0.44
-6.48
-12.59
-18.65
-24.73
-31.14
-38.39
-47.06
-57.51
-69.42
-81.49
-91.42
-96.33
-93.70
-82.19
-62.30
-36.32
-7.69
19.88
43.30
60.53
70.74
74.09
71.44
64.12
53.69
41.79
30.02
19.78
12.11
7.51
5.90
6.55
8.33
9.96
10.46
9.29
6.45
2.35
-2.54
-7.83
-13.33
-18.99
-24.84
-30.98
-37.63
-45.17
-54.09
-64.70
-76.66
-88.61
-98.13
-102.22
-98.25
-84.93
-62.97
-34.99
-4.77
23.81
47.73
65.22
75.70
79.42
77.14
69.99
59.40
47.18
35.24
25.27
18.35
14.74
13.90
14.75
16.12
17.08
17.09
15.97
13.70
10.33
5.88
0.41
-5.89
-12.76
-19.96
-27.38
-35.18
-43.76
-53.60
-64.91
-77.22
-89.07
-98.11
-101.50
-96.80
-82.89
-60.50
-32.21
-1.75
27.05
51.16
68.77
79.33
83.07
80.78
73.54
62.79
50.31
37.98
27.48
19.93
15.69
14.39
15.18
16.96
18.71
19.63
19.22
17.28
13.89
9.29
3.86
-2.05
-8.09
-13.98
-19.66
-25.28
-31.33
-38.52
-47.41
-57.96
-69.06
-78.42
-83.05
-80.21
-68.42
-48.18
-21.92
6.65
33.68
56.07
72.02
81.01
83.43
80.26
72.71
62.20
50.25
38.41
28.06
20.21
15.33
13.32
13.58
15.14
16.94
17.99
17.65
15.67
12.23
7.73
2.65
-2.64
-7.94
-13.29
-18.97
-25.50
-33.50
-43.46
-55.29
-67.93
-79.18
-86.10
-85.77
-76.39
-58.08
-33.00
-4.74
22.68
45.94
62.98
73.05
76.33
73.60
65.96
54.90
42.25
30.04
20.09
13.52
10.54
10.37
11.67
12.92
12.90
11.02
7.31
2.29
-3.28
-8.73
-13.76
-18.47
-23.40
-29.30
-36.90
-46.72
-58.63
-71.67
-83.86
-92.46
-94.66
-88.50
-73.61
-51.45
-24.97
2.34
27.29
47.56
61.81
69.42
70.36
65.07
54.63
40.87
26.12
12.77
2.72
-3.14
-5.06
-4.22
-2.29
-0.90
-1.20
-3.59
-7.83
-13.24
-19.08
-24.91
-30.69
-36.80
-43.83
-52.40
-62.91
-75.39
-89.14
-102.61
-113.29
-118.19
-114.57
-100.95
-77.78
-47.56
-14.21
17.96
45.35
65.66
77.97
82.40
79.75
71.32
58.75
44.16
29.87
18.07
10.28
7.02
7.59
10.40
13.45
15.06
14.29
11.13
6.29
0.67
-5.08
-10.76
-16.61
-23.11
-30.75
-39.93
-50.92
-63.57
-77.00
-89.32
-97.74
-99.21
-91.48
-73.97
-48.20
-17.40
14.50
43.85
68.04
85.61
96.05
99.44
96.36
87.88
75.65
61.80
48.60
37.97
31.03
27.88
27.69
29.02
30.34
30.42
28.64
24.99
19.93
14.08
7.89
1.54
-5.19
-12.74
-21.65
-32.44
-45.37
-60.13
-75.67
-89.94
-100.10
-103.14
-96.81
-80.49
-55.62
-25.43
5.94
34.59
57.67
73.70
82.38
84.13
79.81
70.63
58.23
44.68
32.19
22.65
17.08
15.40
16.57
18.97
20.99
21.51
20.08
16.88
12.50
7.53
2.43
-2.68
-7.95
-13.69
-20.33
-28.25
-37.82
-49.05
-61.37
-73.32
-82.54
-86.20
-81.82
-68.19
-45.99
-17.74
12.84
41.83
66.03
83.44
93.27
95.66
91.41
81.84
68.69
54.12
40.34
29.33
22.32
19.53
20.12
22.51
24.83
25.58
24.02
20.27
15.09
9.43
4.01
-1.01
-5.99
-11.53
-18.34
-26.90
-37.41
-49.63
-62.62
-74.65
-83.27
-85.77
-79.96
-65.03
-42.00
-13.59
16.48
44.40
67.18
83.04
91.43
92.70
87.83
78.14
65.30
51.20
37.88
27.13
20.10
17.00
17.01
18.57
19.91
19.64
17.13
12.57
6.70
0.40
-5.71
-11.45
-17.14
-23.49
-31.39
-41.65
-54.49
-69.20
-83.86
-95.55
-101.04
-97.76
-84.71
-62.87
-34.94
-4.58
24.59
49.60
68.54
80.38
84.85
82.33
73.82
61.08
46.41
32.34
21.03
13.73
10.54
10.43
11.76
12.86
12.55
10.39
6.67
2.02
-2.98
-8.07
-13.40
-19.51
-27.03
-36.55
-48.38
-62.25
-77.05
-90.76
-100.57
-103.53
-97.42
-81.61
-57.45
-27.98
2.88
31.39
54.72
71.27
80.52
82.66
78.44
69.06
56.29
42.29
29.36
19.44
13.54
11.59
12.47
14.47
15.88
15.50
12.88
8.34
2.63
-3.42
-9.28
-14.95
-20.86
-27.81
-36.62
-47.89
-61.55
-76.58
-90.77
-101.09
-104.27
-97.87
-81.18
-55.61
-24.38
8.33
38.60
63.51
81.42
91.85
95.00
91.53
82.56
69.71
55.17
41.33
30.30
23.36
20.63
21.12
23.12
24.83
24.90
22.76
18.60
13.13
7.14
1.22
-4.46
-10.10
-16.11
-23.00
-31.24
-41.25
-53.17
-66.61
-80.25
-91.75
-98.05
-96.19
-84.38
-62.75
-33.50
-0.39
32.33
60.94
82.94
97.12
103.44
102.60
95.84
84.85
71.69
58.46
47.06
38.74
33.89
32.05
32.21
33.21
34.02
33.98
32.71
30.06
25.92
20.27
13.22
5.03
-3.85
-12.98
-22.03
-30.93
-39.88
-49.30
-59.66
-71.32
-84.19
-97.34
-108.86
-115.95
-115.65
-105.74
-85.75
-57.33
-23.96
10.03
40.58
64.79
81.22
89.70
90.91
86.06
76.80
65.15
53.25
43.08
35.94
32.21
31.39
32.40
34.08
35.57
36.40
36.43
35.58
33.70
30.57
25.97
19.85
12.45
4.24
-4.23
-12.43
-20.15
-27.47
-34.87
-43.06
-52.67
-63.87
-75.91
-86.96
-94.29
-94.98
-86.88
-69.51
-44.40
-14.78
15.35
42.23
63.14
76.68
82.65
81.65
74.81
63.69
50.19
36.36
24.09
14.71
8.76
5.99
5.61
6.54
7.66
8.04
6.95
3.96
-1.01
-7.68
-15.51
-23.85
-32.16
-40.10
-47.60
-54.80
-61.98
-69.55
-77.99
-87.69
-98.62
-109.87
-119.52
-124.79
-122.82
-111.63
-90.97
-62.65
-30.07
2.65
31.78
54.70
70.20
78.25
79.65
75.68
67.90
58.01
47.78
38.77
32.15
28.49
27.71
29.11
31.59
33.92
35.03
34.23
31.40
26.88
21.30
15.32
9.34
3.44
-2.58
-9.04
-16.29
-24.65
-34.40
-45.70
-58.25
-70.98
-81.86
-88.19
-87.18
-77.06
-57.73
-31.13
-0.72
29.43
55.72
75.75
88.58
94.35
93.88
88.24
78.60
66.29
52.88
40.06
29.39
21.94
18.00
17.05
17.99
19.45
20.15
19.21
16.24
11.40
5.18
-1.75
-8.84
-15.77
-22.57
-29.49
-36.91
-45.31
-55.08
-66.32
-78.54
-90.28
-99.09
-102.01
-96.45
-81.30
-57.51
-28.02
3.11
31.97
55.69
72.80
83.06
86.90
85.04
78.41
68.23
56.11
43.91
33.38
25.77
21.54
20.27
20.87
21.96
22.29
21.07
18.12
13.81
8.79
3.68
-1.21
-5.91
-10.74
-16.08
-22.29
-29.70
-38.57
-48.98
-60.52
-72.00
-81.28
-85.67
-82.69
-70.98
-50.98
-24.97
3.56
30.86
53.87
70.72
80.72
83.99
81.24
73.53
62.30
49.40
36.84
26.40
19.23
15.60
14.88
15.87
17.22
17.82
17.01
14.63
10.98
6.57
2.01
-2.30
-6.29
-10.35
-15.18
-21.57
-30.13
-40.94
-53.29
-65.60
-75.62
-80.79
-78.97
-69.10
-51.60
-28.48
-2.74
22.27
43.68
59.55
68.95
71.81
68.67
60.65
49.25
36.37
24.00
13.84
6.90
3.29
2.28
2.59
2.90
2.22
0.13
-3.24
-7.44
-11.96
-16.55
-21.27
-26.51
-32.84
-40.81
-50.75
-62.50
-75.13
-86.84
-95.11
-97.33
-91.51
-77.11
-55.30
-28.71
-0.76
25.30
46.98
62.75
71.99
74.67
71.26
62.75
50.76
37.43
25.06
15.54
9.87
7.95
8.67
10.47
11.80
11.64
9.62
6.02
1.46
-3.42
-8.23
-13.05
-18.36
-24.94
-33.57
-44.58
-57.55
-70.97
-82.45
-89.09
-88.44
-79.15
-61.57
-37.68
-10.52
16.62
40.85
60.06
72.92
78.79
77.63
70.18
57.98
43.38
29.02
17.25
9.51
6.06
6.03
7.90
10.03
11.10
10.43
7.97
4.14
-0.44
-5.26
-10.08
-15.07
-20.70
-27.68
-36.58
-47.64
-60.34
-73.12
-83.49
-88.46
-85.44
-73.20
-52.47
-25.80
3.13
30.63
53.81
70.93
81.30
84.92
82.23
74.21
62.40
48.89
36.02
25.83
19.48
17.01
17.35
18.89
20.04
19.73
17.66
14.18
9.94
5.48
0.98
-3.76
-9.18
-15.78
-23.95
-33.84
-45.24
-57.29
-68.35
-76.04
-77.84
-71.83
-57.51
-36.13
-10.41
16.23
40.57
60.19
73.65
80.40
80.56
74.86
64.66
51.87
38.76
27.42
19.33
14.92
13.68
14.34
15.42
15.68
14.44
11.64
7.69
3.23
-1.28
-5.65
-10.19
-15.53
-22.42
-31.46
-42.71
-55.41
-67.84
-77.44
-81.50
-77.87
-65.76
-46.08
-21.29
5.32
30.38
51.19
65.94
73.80
74.76
69.53
59.48
46.52
32.93
20.84
11.80
6.40
4.24
4.17
4.76
4.86
3.87
1.81
-0.97
-4.08
-7.43
-11.26
-16.10
-22.53
-31.01
-41.77
-54.48
-68.14
-80.84
-89.94
-92.62
-86.75
-71.75
-48.92
-21.20
7.65
34.12
55.65
70.79
79.02
80.47
75.74
66.00
53.06
39.27
27.07
18.34
13.90
13.29
15.04
17.26
18.27
17.14
13.76
8.70
2.83
-3.14
-8.92
-14.72
-21.21
-29.22
-39.47
-52.13
-66.45
-80.65
-91.96
-97.24
-93.91
-80.83
-58.89
-30.84
-0.56
28.06
52.00
69.58
80.27
84.31
82.33
75.22
64.32
51.43
38.70
28.19
21.30
18.34
18.54
20.31
21.88
21.89
19.76
15.67
10.37
4.72
-0.71
-5.81
-10.99
-16.90
-24.30
-33.75
-45.45
-59.03
-73.25
-85.97
-94.41
-95.71
-87.84
-70.44
-45.09
-15.04
15.70
43.34
65.15
79.78
87.04
87.65
82.77
73.79
62.31
50.04
38.67
29.59
23.62
20.80
20.41
21.19
21.76
21.07
18.64
14.60
9.54
4.11
-1.21
-6.31
-11.36
-16.69
-22.72
-29.82
-38.30
-48.34
-59.79
-71.90
-83.04
-90.84
-92.62
-86.22
-70.81
-47.41
-18.77
11.37
39.21
61.74
77.30
85.44
86.68
82.19
73.52
62.41
50.67
39.87
31.14
25.06
21.65
20.48
20.87
22.01
23.06
23.31
22.23
19.63
15.65
10.68
5.17
-0.51
-6.26
-12.11
-18.25
-24.97
-32.61
-41.61
-52.24
-64.24
-76.38
-86.40
-91.36
-88.55
-76.54
-55.79
-28.80
0.70
28.72
52.07
68.85
78.47
81.31
78.26
70.57
59.71
47.37
35.34
25.26
18.28
14.80
14.43
16.09
18.32
19.69
19.20
16.44
11.71
5.77
-0.50
-6.48
-11.97
-17.25
-22.88
-29.47
-37.54
-47.36
-58.80
-71.10
-82.67
-91.13
-93.76
-88.32
-73.92
-51.56
-24.00
5.01
31.77
53.53
68.71
76.85
78.22
73.52
63.85
50.80
36.40
22.90
12.27
5.69
3.23
3.88
5.94
7.60
7.56
5.33
1.23
-3.90
-9.13
-13.90
-18.18
-22.46
-27.47
-34.02
-42.72
-53.88
-67.11
-81.15
-93.73
-101.83
-102.44
-93.58
-75.05
-48.77
-18.22
12.57
40.11
62.04
77.31
85.73
87.65
83.68
74.89
62.86
49.71
37.67
28.54
23.23
21.49
22.14
23.57
24.29
23.38
20.65
16.50
11.59
6.52
1.57
-3.29
-8.42
-14.28
-21.41
-30.30
-41.20
-53.81
-66.97
-78.53
-85.70
-85.74
-76.90
-59.21
-34.63
-6.61
20.95
44.71
62.51
73.49
77.74
75.87
68.79
57.71
44.22
30.31
18.08
9.19
4.42
3.43
4.90
7.06
8.34
7.86
5.56
1.96
-2.17
-6.28
-10.19
-14.17
-18.80
-24.68
-32.28
-41.71
-52.55
-63.71
-73.37
-79.21
-78.94
-70.93
-54.90
-32.17
-5.45
21.90
46.66
66.41
79.74
86.24
86.14
80.23
69.81
56.66
42.92
30.69
21.51
15.98
13.67
13.34
13.47
12.74
10.44
6.53
1.52
-3.86
-9.05
-13.85
-18.53
-23.77
-30.34
-38.85
-49.37
-61.25
-72.98
-82.38
-86.98
-84.65
-74.31
-56.34
-32.69
-6.39
19.22
41.25
57.72
67.66
70.91
67.86
59.47
47.24
33.22
19.76
8.95
2.01
-0.99
-1.12
-0.10
0.43
-0.56
-3.20
-6.99
-11.17
-15.18
-18.96
-22.95
-27.92
-34.66
-43.70
-55.04
-67.88
-80.50
-90.40
-94.76
-91.21
-78.63
-57.67
-30.68
-1.12
27.36
51.70
69.88
80.89
84.54
81.28
72.14
58.80
43.49
28.68
16.50
8.33
4.36
3.78
5.04
6.50
6.86
5.50
2.50
-1.62
-6.22
-10.82
-15.40
-20.31
-26.28
-34.10
-44.35
-56.93
-70.69
-83.42
-92.11
-93.76
-86.40
-69.74
-45.45
-16.67
12.85
39.69
61.33
76.32
84.10
84.76
79.00
68.08
53.95
38.98
25.54
15.48
9.60
7.51
7.87
8.93
9.18
7.79
4.68
0.35
-4.52
-9.50
-14.51
-19.83
-25.95
-33.42
-42.70
-53.98
-66.85
-80.07
-91.47
-98.21
-97.51
-87.61
-68.53
-42.23
-12.12
17.90
44.37
64.96
78.53
84.86
84.33
77.76
66.55
52.63
38.37
26.10
17.57
13.46
13.28
15.58
18.56
20.60
20.77
18.94
15.60
11.49
7.19
2.90
-1.62
-6.86
-13.42
-21.80
-32.25
-44.60
-57.94
-70.52
-79.79
-82.99
-77.90
-63.73
-41.52
-13.91
15.51
43.14
66.06
82.37
91.22
92.62
87.34
76.85
63.18
48.62
35.42
25.27
18.96
16.29
16.24
17.32
18.02
17.31
14.77
10.69
5.74
0.57
-4.45
-9.44
-14.90
-21.52
-29.91
-40.36
-52.60
-65.62
-77.59
-86.05
-88.38
-82.58
-67.99
-45.71
-18.44
10.25
36.79
58.41
73.47
81.37
82.25
76.75
66.03
51.84
36.47
22.45
11.88
5.89
4.22
5.39
7.31
8.07
6.55
2.73
-2.60
-8.36
-13.75
-18.59
-23.42
-29.16
-36.74
-46.79
-59.25
-73.23
-86.94
-97.80
-102.92
-99.76
-87.03
-65.20
-36.66
-5.03
25.69
52.14
72.12
84.65
89.67
87.74
79.91
67.78
53.46
39.41
27.83
20.21
16.85
16.84
18.53
20.10
20.18
18.17
14.20
8.88
2.93
-3.14
-9.16
-15.33
-22.20
-30.43
-40.67
-53.14
-67.18
-81.02
-91.89
-96.59
-92.55
-78.73
-56.10
-27.46
3.50
33.09
58.48
77.89
90.46
95.92
94.53
87.11
75.30
61.44
48.18
37.75
31.37
28.97
29.36
30.82
31.73
31.02
28.33
23.85
18.04
11.40
4.35
-2.84
-10.03
-17.30
-24.95
-33.53
-43.66
-55.72
-69.28
-82.85
-93.78
-98.82
-95.05
-80.99
-57.28
-26.71
6.54
38.13
64.57
83.85
95.33
99.37
96.84
88.84
76.90
62.86
48.90
37.05
28.76
24.47
23.60
24.80
26.49
27.35
26.57
23.97
19.86
14.80
9.30
3.71
-1.87
-7.59
-13.72
-20.66
-28.86
-38.79
-50.56
-63.65
-76.47
-86.43
-90.40
-85.73
-71.23
-47.81
-18.37
13.00
42.18
66.02
82.74
91.96
94.18
90.45
82.07
70.60
57.82
45.60
35.61
28.89
25.65
25.17
26.09
26.86
26.23
23.55
18.90
12.90
6.36
-0.03
-5.93
-11.47
-17.12
-23.62
-31.70
-41.90
-54.23
-67.94
-81.35
-91.97
-97.05
-94.27
-82.55
-62.52
-36.43
-7.58
20.49
44.80
63.34
75.03
79.67
77.63
69.88
58.01
44.13
30.59
19.45
11.98
8.38
7.79
8.74
9.65
9.32
7.23
3.51
-1.24
-6.28
-11.09
-15.58
-20.16
-25.67
-33.04
-42.98
-55.47
-69.45
-82.78
-92.58
-95.93
-90.73
-76.43
-54.33
-27.23
1.32
27.93
49.98
65.85
74.86
76.95
72.63
62.93
49.59
34.85
21.12
10.40
3.71
0.89
0.75
1.56
1.76
0.41
-2.63
-6.83
-11.48
-16.02
-20.34
-24.79
-30.02
-36.70
-45.34
-55.92
-67.71
-79.14
-87.88
-91.27
-87.06
-74.22
-53.36
-26.76
2.36
30.61
55.24
74.36
87.03
92.92
92.21
85.65
74.69
61.42
48.28
37.48
30.38
27.16
26.83
27.72
28.04
26.44
22.33
15.80
7.42
-2.08
-12.16
-22.55
-33.30
-44.64
-56.88
-70.00
-83.36
-95.44
-103.92
-106.16
-100.11
-85.15
-62.49
-35.01
-6.32
20.17
41.96
57.68
66.78
69.24
65.47
56.49
44.06
30.59
18.61
10.01
5.50
4.45
5.35
6.53
6.78
5.66
3.33
0.29
-3.00
-6.38
-9.99
-14.24
-19.67
-26.86
-36.19
-47.49
-59.80
-71.13
-78.79
-80.12
-73.29
-58.09
-36.07
-10.10
16.44
40.49
59.80
73.03
79.60
79.54
73.42
62.51
48.76
34.56
22.28
13.55
8.87
7.56
8.12
8.94
8.78
7.22
4.46
1.13
-2.23
-5.36
-8.45
-11.95
-16.51
-22.75
-31.07
-41.44
-53.03
-64.08
-72.08
-74.27
-68.57
-54.40
-33.01
-7.26
19.23
43.03
61.67
73.88
79.35
78.45
72.00
61.24
47.95
34.20
22.07
13.04
7.60
5.17
4.43
3.91
2.52
-0.14
-3.80
-7.88
-11.79
-15.32
-18.74
-22.80
-28.45
-36.40
-46.75
-58.62
-70.10
-78.57
-81.29
-76.28
-62.95
-42.40
-17.26
9.05
33.03
51.90
63.98
68.77
66.74
59.05
47.40
33.79
20.32
8.78
0.32
-4.85
-7.36
-8.37
-9.09
-10.31
-12.28
-14.84
-17.70
-20.75
-24.13
-28.33
-34.03
-41.83
-52.03
-64.17
-76.80
-87.46
-93.12
-91.07
-79.89
-60.05
-33.91
-5.11
22.48
45.58
62.02
70.77
71.82
65.99
54.88
40.70
25.95
13.01
3.50
-1.99
-4.02
-3.87
-3.06
-2.76
-3.56
-5.49
-8.26
-11.59
-15.48
-20.29
-26.65
-35.24
-46.37
-59.57
-73.34
-85.16
-91.99
-91.06
-80.79
-61.47
-35.27
-5.73
23.16
47.91
66.09
76.55
79.25
75.03
65.35
52.25
38.03
24.95
14.81
8.44
5.64
5.31
5.98
6.28
5.38
3.07
-0.43
-4.77
-9.80
-15.71
-23.06
-32.47
-44.22
-57.85
-71.74
-83.24
-89.17
-86.73
-74.50
-53.11
-25.13
5.54
34.75
59.02
76.10
85.06
86.12
80.40
69.63
56.01
41.86
29.26
19.64
13.53
10.55
9.67
9.63
9.36
8.17
5.82
2.40
-1.90
-7.03
-13.22
-20.91
-30.59
-42.29
-55.18
-67.32
-75.87
-77.76
-70.79
-54.40
-30.10
-1.08
28.61
55.11
75.54
88.36
93.23
90.82
82.55
70.39
56.63
43.58
33.06
26.03
22.45
21.40
21.53
21.51
20.48
18.11
14.50
9.94
4.59
-1.62
-9.04
-18.13
-29.17
-41.86
-55.02
-66.54
-73.64
-73.63
-64.80
-47.12
-22.43
5.98
34.24
58.76
76.97
87.46
89.99
85.27
74.83
60.85
45.81
32.09
21.47
14.69
11.38
10.42
10.37
10.02
8.65
6.11
2.56
-1.73
-6.58
-12.09
-18.62
-26.71
-36.88
-49.21
-62.94
-76.23
-86.30
-90.06
-85.09
-70.49
-47.40
-18.72
11.69
39.95
63.02
78.93
86.88
86.94
80.11
68.17
53.58
39.09
27.16
19.27
15.62
15.22
16.34
17.30
16.94
14.86
11.31
6.86
1.99
-3.16
-8.87
-15.77
-24.64
-36.09
-50.06
-65.46
-80.00
-90.46
-93.49
-86.67
-69.45
-43.42
-12.00
20.63
50.48
74.56
91.08
99.32
99.37
92.10
79.16
63.00
46.53
32.50
22.69
17.51
16.02
16.40
16.79
15.89
13.29
9.28
4.54
-0.37
-5.24
-10.34
-16.33
-24.03
-34.17
-47.07
-62.21
-77.91
-91.37
-99.18
-98.19
-86.71
-65.14
-36.01
-3.28
28.80
56.64
77.89
91.34
96.71
94.40
85.45
71.68
55.59
40.01
27.40
19.21
15.58
15.39
16.83
17.96
17.31
14.24
8.91
2.09
-5.21
-12.15
-18.41
-24.28
-30.62
-38.54
-49.05
-62.65
-78.80
-95.72
-110.41
-119.11
-118.27
-105.77
-81.69
-48.68
-11.16
25.85
58.06
82.78
99.00
107.03
107.81
102.58
92.76
80.05
66.49
54.17
44.77
39.12
36.97
37.16
38.05
38.12
36.39
32.56
26.96
20.25
13.06
5.77
-1.54
-9.06
-17.12
-26.09
-36.35
-48.27
-62.02
-77.20
-92.40
-105.10
-111.89
-109.53
-96.07
-71.74
-39.23
-2.84
32.68
63.40
86.85
102.06
109.13
108.82
102.36
91.43
78.15
64.79
53.33
45.03
40.25
38.50
38.75
39.83
40.63
40.28
38.21
34.23
28.47
21.35
13.40
5.10
-3.15
-11.16
-18.85
-26.31
-33.90
-42.29
-52.24
-64.31
-78.20
-92.34
-103.83
-109.13
-105.18
-90.51
-65.97
-34.60
-0.70
31.35
58.10
77.48
88.79
92.36
89.17
80.69
68.81
55.63
43.16
32.97
25.85
21.81
20.31
20.45
21.39
22.39
22.88
22.40
20.59
17.28
12.47
6.45
-0.36
-7.47
-14.49
-21.20
-27.60
-33.95
-40.71
-48.54
-58.03
-69.33
-81.62
-92.95
-100.40
-100.80
-91.88
-73.20
-46.51
-15.34
16.01
43.64
64.86
78.42
84.31
83.27
76.53
65.67
52.51
39.06
27.16
18.20
12.77
10.68
11.00
12.49
13.92
14.38
13.39
10.90
7.12
2.40
-2.94
-8.62
-14.46
-20.37
-26.41
-32.84
-40.09
-48.68
-58.88
-70.29
-81.53
-90.25
-93.62
-89.25
-76.05
-54.85
-28.19
0.36
27.16
49.39
65.33
74.31
76.44
72.33
63.05
50.15
35.65
21.73
10.34
2.73
-0.87
-1.26
0.03
1.23
0.92
-1.56
-6.06
-11.73
-17.63
-23.08
-27.95
-32.63
-37.79
-44.10
-52.09
-62.06
-73.85
-86.65
-98.68
-107.31
-109.54
-102.96
-86.71
-62.02
-31.96
-0.61
28.10
51.29
67.40
76.03
77.46
72.43
62.14
48.32
33.25
19.37
8.73
2.44
0.36
1.27
3.34
4.89
4.81
2.87
-0.53
-4.66
-8.89
-12.99
-17.17
-21.98
-28.16
-36.37
-47.00
-59.83
-73.76
-86.68
-95.73
-97.92
-91.14
-74.84
-50.52
-21.23
9.16
37.00
59.57
75.24
83.42
84.22
78.37
67.19
52.64
37.20
23.39
13.16
7.38
5.57
6.25
7.47
7.57
5.70
1.92
-3.07
-8.37
-13.41
-18.10
-22.91
-28.52
-35.67
-44.87
-56.13
-68.80
-81.30
-91.21
-95.68
-92.20
-79.55
-58.27
-30.79
-0.72
28.13
52.61
70.75
81.75
85.65
83.00
74.79
62.49
48.05
33.83
22.03
14.19
10.65
10.54
12.12
13.50
13.27
10.94
6.91
2.06
-2.75
-7.14
-11.28
-15.81
-21.55
-29.26
-39.37
-51.74
-65.46
-78.67
-88.76
-92.79
-88.41
-74.61
-52.32
-24.20
6.03
34.62
58.57
75.98
86.03
88.66
84.44
74.55
60.82
45.70
31.77
21.13
14.84
12.67
13.33
15.02
16.14
15.63
13.23
9.26
4.36
-0.80
-5.89
-10.90
-16.25
-22.62
-30.74
-41.04
-53.35
-66.51
-78.39
-86.22
-87.26
-79.66
-63.12
-39.16
-10.77
18.37
44.73
65.60
79.39
85.58
84.44
76.91
64.55
49.46
34.07
20.79
11.46
6.80
6.30
8.39
10.99
12.27
11.19
7.62
2.18
-4.18
-10.69
-17.02
-23.32
-30.17
-38.34
-48.57
-61.20
-75.75
-90.52
-102.65
-108.66
-105.49
-91.59
-67.68
-36.64
-2.71
29.73
57.13
77.32
89.38
93.36
89.94
80.36
66.50
50.79
35.94
24.26
17.06
14.34
14.84
16.65
17.91
17.31
14.39
9.41
3.03
-3.99
-11.10
-18.04
-24.92
-32.14
-40.41
-50.57
-63.23
-78.25
-94.29
-108.63
-117.61
-117.60
-106.22
-83.32
-51.31
-14.45
22.24
54.36
78.95
94.70
101.62
100.59
93.04
80.82
66.13
51.34
38.61
29.41
24.28
22.77
23.70
25.52
26.75
26.26
23.42
18.27
11.33
3.36
-4.90
-13.04
-21.06
-29.24
-38.02
-47.79
-58.94
-71.75
-86.36
-102.29
-117.99
-130.61
-136.37
-131.65
-114.37
-85.02
-46.76
-4.59
36.17
71.19
97.82
115.00
122.84
122.11
114.24
101.36
86.21
71.76
60.44
53.50
50.78
51.00
52.45
53.66
53.82
52.71
50.51
47.36
43.20
37.71
30.56
21.62
11.20
0.01
-11.02
-21.11
-29.92
-37.75
-45.39
-53.98
-64.56
-77.61
-92.68
-108.12
-121.07
-128.01
-125.58
-111.71
-86.49
-52.31
-13.43
25.26
59.42
86.03
103.69
112.27
112.54
105.91
94.33
80.27
66.36
54.97
47.62
44.61
45.09
47.49
50.18
51.94
52.25
51.17
49.02
46.01
42.14
37.10
30.57
22.42
12.90
2.60
-7.71
-17.38
-26.09
-34.02
-41.76
-50.15
-60.00
-71.62
-84.36
-96.37
-104.67
-105.95
-97.59
-78.71
-50.78
-17.24
17.43
48.97
74.28
91.76
101.11
102.87
98.15
88.50
75.87
62.50
50.54
41.56
36.18
34.02
34.00
34.82
35.39
35.09
33.69
31.15
27.50
22.70
16.75
9.69
1.80
-6.59
-15.06
-23.35
-31.42
-39.54
-48.30
-58.38
-70.29
-83.71
-97.22
-108.16
-113.18
-109.26
-94.83
-70.56
-39.32
-5.38
26.74
53.42
72.51
83.37
86.42
82.77
73.89
61.55
47.69
34.31
23.18
15.43
11.42
10.67
12.06
14.25
15.97
16.34
14.92
11.75
7.14
1.52
-4.70
-11.24
-17.96
-24.80
-31.87
-39.40
-47.84
-57.78
-69.65
-83.22
-97.16
-108.85
-114.87
-111.94
-98.20
-74.09
-42.45
-7.72
25.35
52.97
73.02
85.00
89.56
87.77
80.84
70.07
56.97
43.38
31.19
21.98
16.56
14.83
15.78
17.96
19.84
20.27
18.65
14.98
9.69
3.45
-3.14
-9.68
-16.09
-22.59
-29.61
-37.68
-47.35
-58.96
-72.39
-86.70
-99.88
-108.96
-110.68
-102.47
-83.53
-55.36
-21.54
13.26
44.62
69.37
86.11
94.89
96.69
92.77
84.49
73.22
60.53
48.06
37.41
29.70
25.33
23.88
24.30
25.25
25.51
24.24
21.11
16.24
9.98
2.81
-4.85
-12.65
-20.35
-27.84
-35.25
-43.00
-51.73
-62.11
-74.31
-87.47
-99.48
-107.17
-107.24
-97.38
-77.23
-48.75
-15.73
17.33
46.39
68.69
83.04
89.45
88.76
82.26
71.56
58.53
45.17
33.38
24.56
19.38
17.65
18.44
20.41
22.14
22.51
20.97
17.52
12.66
7.05
1.26
-4.45
-10.07
-15.81
-21.96
-28.83
-36.84
-46.39
-57.57
-69.79
-81.38
-89.72
-91.79
-85.19
-69.10
-44.83
-15.55
14.58
41.59
62.57
76.12
82.15
81.46
75.26
64.95
52.06
38.30
25.47
15.20
8.59
5.90
6.41
8.73
11.20
12.46
11.75
9.08
4.95
0.05
-5.09
-10.27
-15.63
-21.51
-28.37
-36.65
-46.69
-58.66
-72.14
-85.92
-97.75
-104.67
-103.78
-93.16
-72.82
-44.87
-13.06
18.28
45.32
65.55
77.93
82.57
80.34
72.52
60.67
46.66
32.51
20.16
11.08
5.97
4.60
5.95
8.53
10.78
11.45
9.92
6.22
0.91
-5.26
-11.62
-17.90
-24.25
-31.10
-38.90
-48.05
-58.76
-71.04
-84.48
-97.91
-109.23
-115.49
-113.61
-101.50
-78.97
-48.19
-13.13
21.50
51.58
74.41
88.89
95.23
94.34
87.62
76.74
63.63
50.39
38.94
30.62
26.00
24.77
25.94
28.18
30.14
30.77
29.46
26.06
20.83
14.27
6.92
-0.78
-8.60
-16.46
-24.47
-32.86
-42.00
-52.36
-64.39
-78.11
-92.69
-106.09
-115.21
-116.60
-107.62
-87.54
-58.05
-22.96
12.95
45.18
70.60
87.71
96.42
97.49
92.18
82.11
69.21
55.71
43.69
34.73
29.51
27.70
28.28
29.95
31.57
32.41
32.09
30.49
27.53
23.12
17.25
10.05
1.83
-6.93
-15.80
-24.40
-32.67
-40.83
-49.44
-59.25
-70.83
-84.14
-98.00
-109.96
-116.70
-114.94
-102.58
-79.67
-48.59
-13.45
21.04
50.84
73.32
87.47
93.51
92.42
85.66
74.99
62.35
49.84
39.31
32.03
28.39
27.90
29.40
31.53
33.15
33.57
32.60
30.39
27.12
22.92
17.79
11.69
4.73
-2.77
-10.36
-17.64
-24.46
-31.04
-37.95
-45.97
-55.74
-67.38
-80.10
-91.98
-100.15
-101.51
-93.63
-75.77
-49.31
-17.51
15.31
44.97
68.37
83.97
91.60
92.00
86.43
76.37
63.54
49.93
37.52
27.97
22.20
20.18
21.04
23.41
25.92
27.53
27.61
25.92
22.46
17.42
11.09
3.89
-3.76
-11.48
-19.09
-26.58
-34.17
-42.31
-51.59
-62.46
-74.74
-87.22
-97.45
-102.20
-98.43
-84.55
-61.20
-31.31
0.77
30.55
54.60
71.21
80.17
82.22
78.50
70.19
58.59
45.29
32.19
21.19
13.73
10.34
10.49
12.80
15.53
17.17
16.83
14.35
10.11
4.73
-1.24
-7.50
-13.96
-20.65
-27.66
-35.11
-43.26
-52.55
-63.35
-75.56
-88.11
-98.72
-104.26
-101.64
-89.06
-66.79
-37.32
-4.69
26.76
53.49
73.38
85.72
90.81
89.49
82.88
72.37
59.65
46.59
35.04
26.43
21.48
19.99
20.97
22.91
24.30
24.02
21.65
17.42
11.95
5.87
-0.47
-7.04
-13.99
-21.49
-29.64
-38.54
-48.48
-59.79
-72.51
-85.90
-98.00
-105.86
-106.23
-96.74
-76.95
-48.71
-15.69
17.64
47.28
70.43
85.79
93.26
93.57
87.88
77.77
65.07
51.85
40.05
31.19
26.04
24.50
25.77
28.59
31.55
33.37
33.20
30.69
26.02
19.76
12.64
5.25
-2.09
-9.40
-16.97
-25.19
-34.48
-45.23
-57.55
-71.08
-84.56
-95.76
-101.76
-99.71
-87.88
-66.48
-37.84
-5.84
25.14
51.39
70.58
81.86
85.61
82.92
75.23
64.21
51.66
39.42
29.11
21.87
18.13
17.59
19.24
21.77
23.80
24.32
22.82
19.38
14.48
8.75
2.73
-3.26
-9.14
-14.98
-21.00
-27.52
-35.06
-44.16
-55.15
-67.61
-80.03
-89.76
-93.63
-88.94
-74.49
-51.23
-22.07
8.89
37.52
60.61
76.37
84.39
85.26
80.23
70.84
58.87
46.14
34.36
24.96
18.81
16.10
16.31
18.31
20.67
22.04
21.50
18.85
14.49
9.21
3.80
-1.37
-6.41
-11.81
-18.14
-25.86
-35.15
-45.96
-57.95
-70.29
-81.46
-89.15
-90.66
-83.78
-67.68
-43.55
-14.50
15.29
41.82
62.20
75.13
80.61
79.42
72.68
61.67
47.99
33.56
20.49
10.62
5.03
3.63
5.25
8.01
9.99
9.83
7.09
2.25
-3.69
-9.68
-15.09
-19.90
-24.61
-30.01
-36.93
-46.02
-57.52
-71.01
-85.08
-97.31
-104.63
-104.08
-93.83
-73.96
-46.62
-15.48
15.38
42.42
63.34
77.07
83.49
83.05
76.61
65.48
51.53
37.04
24.30
15.07
10.13
9.04
10.37
12.27
13.08
11.79
8.25
2.93
-3.34
-9.87
-16.24
-22.46
-28.88
-36.06
-44.71
-55.33
-68.03
-81.96
-95.13
-104.52
-106.75
-99.19
-81.02
-53.75
-20.88
13.12
44.07
69.01
86.48
96.18
98.53
94.31
84.70
71.40
56.67
43.03
32.63
26.68
25.11
26.72
29.60
31.87
32.12
29.84
25.26
19.18
12.51
5.94
-0.29
-6.41
-12.97
-20.63
-30.00
-41.47
-54.88
-69.25
-82.59
-92.05
-94.58
-87.80
-71.01
-45.64
-14.93
16.87
45.73
68.70
84.28
92.27
93.33
88.58
79.38
67.35
54.32
42.15
32.37
25.89
22.79
22.33
23.26
24.19
23.95
21.94
18.17
13.11
7.39
1.53
-4.26
-10.07
-16.22
-23.04
-30.89
-40.08
-50.86
-63.17
-76.30
-88.56
-97.36
-99.65
-93.00
-76.53
-51.45
-20.92
10.90
39.88
62.94
78.40
85.93
86.18
80.34
70.01
57.03
43.44
31.22
21.90
16.24
14.10
14.53
16.16
17.63
17.95
16.69
13.91
10.03
5.54
0.78
-4.11
-9.22
-14.75
-20.98
-28.22
-36.82
-46.94
-58.40
-70.27
-80.67
-86.98
-86.47
-77.29
-59.24
-34.15
-5.36
23.22
48.16
67.18
79.23
84.19
82.56
75.24
63.58
49.48
35.22
23.01
14.46
10.21
9.70
11.55
13.97
15.34
14.66
11.70
6.96
1.32
-4.39
-9.67
-14.54
-19.52
-25.42
-33.06
-43.00
-55.23
-68.90
-82.12
-92.19
-96.09
-91.41
-77.21
-54.51
-26.11
4.24
32.78
56.56
73.80
83.74
86.33
82.10
72.07
57.91
41.90
26.55
14.15
6.11
2.59
2.59
4.32
5.93
6.04
4.08
0.29
-4.65
-10.09
-15.67
-21.43
-27.72
-34.97
-43.63
-54.05
-66.35
-80.03
-93.64
-104.67
-109.93
-106.47
-92.68
-69.13
-38.57
-5.20
26.61
53.41
73.22
85.45
90.38
88.70
81.36
69.68
55.46
40.96
28.47
19.74
15.42
14.94
16.71
18.80
19.57
18.11
14.43
9.17
3.22
-2.72
-8.36
-13.92
-19.95
-27.16
-36.17
-47.29
-60.27
-74.05
-86.66
-95.42
-97.49
-90.68
-74.30
-49.57
-19.43
12.21
41.48
65.44
82.45
92.04
94.58
90.95
82.32
70.23
56.53
43.24
32.26
24.85
21.36
21.19
22.97
25.00
25.75
24.36
20.68
15.22
8.79
2.09
-4.49
-10.93
-17.51
-24.62
-32.73
-42.35
-53.85
-67.19
-81.46
-94.55
-103.43
-104.83
-96.39
-77.65
-50.45
-18.43
14.08
43.20
66.29
82.14
90.58
92.11
87.56
78.16
65.59
51.92
39.26
29.30
22.90
19.96
19.63
20.64
21.74
22.01
20.94
18.46
14.74
10.14
5.01
-0.42
-6.03
-11.91
-18.29
-25.51
-34.01
-44.07
-55.62
-67.80
-78.84
-86.19
-87.11
-79.57
-63.11
-39.19
-10.94
17.71
43.11
62.67
75.16
80.50
79.30
72.51
61.33
47.20
31.97
17.67
6.16
-1.40
-4.94
-5.45
-4.59
-4.05
-4.95
-7.60
-11.56
-16.12
-20.75
-25.33
-30.22
-35.94
-42.90
-51.37
-61.42
-72.99
-85.68
-98.45
-109.33
-115.62
-114.51
-104.12
-84.35
-57.17
-26.16
4.62
31.66
52.66
66.63
73.46
73.67
68.11
58.12
45.54
32.61
21.56
14.04
10.67
10.93
13.41
16.29
18.01
17.68
15.20
11.14
6.29
1.27
-3.76
-9.11
-15.41
-23.31
-33.28
-45.24
-58.41
-71.16
-81.18
-85.86
-83.01
-71.58
-52.11
-26.73
1.40
28.89
52.83
71.20
82.90
87.57
85.52
77.67
65.61
51.49
37.71
26.33
18.62
14.76
13.87
14.50
15.08
14.47
12.17
8.34
3.55
-1.61
-6.76
-11.98
-17.73
-24.74
-33.75
-45.22
-58.98
-73.91
-87.90
-98.02
-101.27
-95.43
-79.86
-55.91
-26.57
4.33
33.11
56.95
74.17
84.09
86.74
82.73
73.24
60.15
45.89
33.00
23.53
18.48
17.58
19.46
22.27
24.34
24.69
23.16
20.20
16.47
12.43
8.17
3.40
-2.33
-9.50
-18.51
-29.50
-42.20
-55.59
-67.79
-76.21
-78.12
-71.54
-56.01
-32.95
-5.32
23.22
49.24
70.27
84.92
92.76
93.99
89.25
79.68
66.92
53.03
40.19
30.23
24.20
22.12
23.11
25.60
28.00
29.09
28.35
25.95
22.48
18.51
14.29
9.63
4.03
-3.01
-11.84
-22.51
-34.63
-47.35
-59.13
-67.85
-71.08
-66.79
-54.06
-33.60
-7.73
20.24
46.80
69.02
84.97
93.71
95.13
89.89
79.30
65.31
50.27
36.53
25.86
19.09
15.95
15.29
15.57
15.42
13.95
10.97
6.84
2.10
-2.74
-7.51
-12.38
-17.82
-24.41
-32.69
-42.87
-54.52
-66.34
-76.18
-81.37
-79.50
-69.24
-50.90
-26.58
0.47
26.62
48.73
64.66
73.39
74.82
69.67
59.31
45.69
31.10
17.80
7.49
1.00
-1.91
-2.29
-1.61
-1.23
-2.03
-4.31
-7.86
-12.25
-17.06
-22.19
-27.88
-34.68
-43.28
-54.01
-66.54
-79.48
-90.45
-96.57
-95.20
-84.89
-65.95
-40.52
-11.98
15.89
39.78
57.34
67.33
69.47
64.39
53.49
38.92
23.35
9.45
-0.78
-6.50
-8.19
-7.36
-5.88
-5.29
-6.37
-9.09
-12.91
-17.24
-21.78
-26.69
-32.50
-39.95
-49.63
-61.62
-75.19
-88.57
-99.13
-103.95
-100.62
-88.02
-66.79
-39.23
-8.70
21.15
47.10
66.76
78.69
82.41
78.41
68.18
54.06
38.91
25.45
15.59
10.01
8.13
8.53
9.58
9.98
9.08
6.88
3.73
0.06
-3.89
-8.15
-13.07
-19.29
-27.57
-38.49
-51.97
-66.78
-80.44
-89.54
-90.68
-81.71
-62.52
-35.26
-3.71
27.86
55.79
77.60
92.07
98.86
98.25
91.04
78.63
63.13
47.11
33.06
22.80
16.99
15.04
15.45
16.36
16.21
14.14
10.12
4.71
-1.29
-7.27
-13.07
-18.97
-25.70
-34.08
-44.79
-57.95
-72.79
-87.43
-99.00
-104.23
-100.43
-86.38
-62.87
-32.67
0.27
31.86
58.78
78.91
91.33
95.99
93.51
85.10
72.50
58.02
44.15
33.07
26.17
23.66
24.64
27.45
30.23
31.46
30.34
26.91
21.79
15.87
9.88
4.13
-1.57
-7.86
-15.54
-25.32
-37.50
-51.63
-66.29
-79.14
-87.27
-87.91
-79.25
-61.19
-35.52
-5.52
24.84
51.83
72.65
85.69
90.47
87.41
77.66
63.03
45.89
28.92
14.62
4.74
-0.12
-0.62
1.61
4.56
6.47
6.32
3.97
-0.00
-4.69
-9.35
-13.70
-18.00
-22.93
-29.29
-37.81
-48.79
-61.81
-75.55
-87.71
-95.32
-95.50
-86.35
-67.74
-41.49
-11.03
19.63
46.84
68.03
81.86
88.00
86.81
79.20
66.69
51.37
35.74
22.19
12.49
7.21
5.71
6.42
7.42
7.11
4.65
0.10
-5.81
-12.12
-18.12
-23.66
-29.18
-35.56
-43.74
-54.40
-67.54
-82.24
-96.52
-107.48
-111.94
-107.28
-92.40
-68.27
-37.79
-5.00
26.03
52.10
71.33
83.02
87.21
84.44
75.72
62.67
47.55
32.93
21.09
13.42
10.02
9.87
11.24
12.41
12.18
10.11
6.40
1.61
-3.71
-9.22
-14.87
-20.82
-27.40
-35.11
-44.54
-56.19
-70.06
-85.15
-99.16
-108.73
-110.24
-101.12
-80.81
-51.25
-16.37
19.13
50.98
76.29
93.70
103.05
104.83
99.94
89.60
75.59
60.19
45.92
34.91
28.35
26.15
27.11
29.40
31.24
31.44
29.57
25.91
21.06
15.57
9.81
3.83
-2.58
-9.68
-17.77
-27.10
-37.86
-50.09
-63.45
-76.89
-88.34
-94.94
-93.63
-82.20
-60.28
-29.81
5.36
40.50
71.30
94.84
109.90
116.63
115.96
109.19
97.75
83.27
67.59
52.59
39.90
30.49
24.56
21.56
20.50
20.28
19.96
18.91
16.79
13.56
9.30
4.20
-1.61
-7.97
-14.78
-21.92
-29.36
-37.24
-45.92
-55.91
-67.51
-80.32
-92.87
-102.51
-106.07
-100.79
-85.41
-60.83
-29.98
2.99
33.85
59.30
77.44
87.72
90.54
86.85
77.97
65.50
51.30
37.39
25.66
17.41
13.11
12.30
13.79
16.03
17.59
17.52
15.49
11.76
6.91
1.62
-3.60
-8.57
-13.48
-18.78
-25.11
-33.07
-42.92
-54.34
-66.16
-76.30
-82.08
-80.95
-71.24
-52.94
-27.87
0.78
29.27
54.21
73.18
84.91
89.08
86.09
76.91
63.22
47.25
31.58
18.52
9.60
5.12
4.19
5.19
6.33
6.28
4.50
1.17
-3.03
-7.40
-11.58
-15.74
-20.49
-26.66
-34.93
-45.51
-57.89
-70.67
-81.64
-88.12
-87.60
-78.46
-60.59
-35.62
-6.53
23.00
49.46
70.13
83.33
88.46
85.78
76.42
62.16
45.39
28.69
14.36
3.89
-2.33
-4.99
-5.52
-5.52
-6.29
-8.50
-12.14
-16.74
-21.71
-26.66
-31.66
-37.25
-44.30
-53.72
-65.97
-80.61
-95.99
-109.31
-117.21
-116.71
-106.22
-86.21
-59.25
-29.24
-0.35
23.97
41.54
51.50
53.93
49.53
39.49
25.43
9.46
-6.12
-19.26
-28.63
-33.90
-35.65
-34.95
-32.83
-29.89
-26.31
-22.01
-17.05
-11.76
-6.87
-3.31
-2.05
-3.90
-9.28
-17.98
-28.89
-39.83
-47.84
-49.77
-43.30
-27.74
-4.49
23.28
51.53
76.26
94.37
103.92
104.18
95.55
79.47
58.39
35.55
14.43
-1.93
-11.59
-14.18
-10.79
-3.57
4.93
12.33
16.92
17.85
15.16
9.55
2.14
-6.05
-14.36
-22.74
-31.58
-41.40
-52.29
-63.50
-73.29
-79.28
-79.15
-71.39
-55.92
-34.19
-8.77
17.30
41.15
60.49
73.81
80.29
79.86
73.26
62.01
48.30
34.56
22.88
14.50
9.56
7.26
6.22
5.11
3.01
-0.32
-4.53
-9.00
-13.13
-16.73
-20.14
-24.16
-29.83
-37.97
-48.74
-61.34
-73.86
-83.64
-87.80
-84.07
-71.49
-50.71
-23.96
5.51
34.23
59.17
78.20
90.15
94.70
92.25
83.84
71.13
56.36
41.98
30.16
22.25
18.44
17.78
18.70
19.57
19.32
17.63
14.79
11.36
7.73
3.83
-0.85
-7.06
-15.51
-26.54
-39.85
-54.25
-67.71
-77.51
-80.88
-75.73
-61.37
-38.87
-10.85
19.07
47.15
70.28
86.34
94.32
94.26
87.06
74.46
58.79
42.71
28.70
18.45
12.55
10.39
10.54
11.32
11.37
10.00
7.21
3.34
-1.29
-6.71
-13.39
-22.07
-33.52
-48.17
-65.78
-85.20
-104.23
-119.89
-129.00
-128.94
-118.57
-98.57
-71.40
-40.59
-9.92
17.35
38.84
53.20
59.93
59.38
52.76
42.11
30.04
19.17
11.44
7.61
7.19
8.76
10.67
11.65
11.15
9.36
6.81
4.00
1.09
-2.29
-6.92
-13.86
-24.09
-37.99
-54.85
-72.53
-87.65
-96.35
-95.44
-83.59
-61.75
-33.00
-1.53
28.45
53.62
71.84
82.11
84.26
78.88
67.29
51.57
34.38
18.48
6.08
-1.70
-5.03
-5.19
-4.01
-3.20
-3.95
-6.61
-10.92
-16.26
-22.03
-27.97
-34.27
-41.55
-50.71
-62.58
-77.52
-94.88
-112.63
-127.36
-135.00
-131.91
-116.14
-88.30
-51.55
-10.67
29.27
64.15
91.45
110.15
120.19
122.02
116.40
104.59
88.60
71.08
54.95
42.62
35.37
32.94
33.83
35.81
36.79
35.37
31.20
24.82
17.22
9.36
1.72
-5.79
-13.76
-22.95
-34.08
-47.65
-63.78
-81.92
-100.59
-117.16
-128.09
-129.65
-119.15
-96.07
-62.45
-22.55
18.43
55.69
85.90
107.40
119.89
123.94
120.60
111.39
98.37
83.97
70.58
60.02
53.18
49.85
49.11
49.72
50.55
50.73
49.74
47.20
42.86
36.56
28.34
18.47
7.48
-3.86
-14.82
-24.94
-34.16
-43.01
-52.47
-63.60
-77.04
-92.40
-107.87
-120.32
-126.01
-121.60
-105.34
-77.73
-41.59
-1.26
38.51
73.62
101.27
120.03
129.63
130.62
124.25
112.42
97.63
82.61
69.82
60.84
56.07
54.76
55.54
56.94
57.88
57.87
56.84
54.89
52.08
48.23
42.97
35.88
26.73
15.69
3.42
-9.04
-20.66
-30.77
-39.42
-47.40
-55.99
-66.46
-79.53
-94.89
-110.95
-124.88
-133.11
-132.17
-119.75
-95.62
-61.92
-22.67
17.27
53.52
83.01
104.27
117.04
121.82
119.47
111.23
98.87
84.65
71.06
60.23
53.44
50.72
51.02
52.71
54.17
54.39
53.11
50.72
47.80
44.78
41.52
37.41
31.66
23.77
13.79
2.40
-9.32
-20.29
-29.85
-37.86
-44.79
-51.48
-58.96
-68.16
-79.53
-92.75
-106.38
-117.93
-124.22
-122.18
-109.87
-87.23
-56.26
-20.59
15.45
47.99
74.23
92.72
103.09
105.69
101.36
91.46
77.93
63.17
49.65
39.33
33.13
30.80
31.14
32.59
33.88
34.32
33.85
32.71
31.02
28.65
25.22
20.32
13.80
5.86
-2.94
-11.89
-20.35
-27.95
-34.72
-41.11
-47.89
-55.95
-65.92
-77.75
-90.30
-101.31
-107.76
-106.72
-96.28
-76.32
-48.67
-16.63
15.89
45.22
68.61
84.44
92.12
92.00
85.21
73.56
59.41
45.14
32.80
23.60
17.80
14.86
13.89
13.95
14.36
14.62
14.35
13.14
10.61
6.50
0.83
-6.09
-13.69
-21.43
-28.92
-36.04
-43.02
-50.30
-58.46
-68.08
-79.49
-92.39
-105.45
-116.20
-121.44
-118.04
-104.18
-80.15
-48.55
-13.61
20.05
48.68
70.08
83.62
89.79
89.53
83.96
74.28
61.94
48.63
36.06
25.68
18.29
14.00
12.29
12.26
12.86
13.14
12.35
10.02
6.00
0.50
-6.07
-13.14
-20.22
-27.04
-33.64
-40.45
-48.10
-57.34
-68.60
-81.69
-95.34
-107.17
-114.06
-113.01
-102.10
-81.28
-52.61
-19.70
13.18
42.16
64.49
78.82
85.03
83.92
76.90
65.69
52.25
38.51
26.21
16.59
10.34
7.46
7.40
9.26
12.01
14.70
16.62
17.29
16.48
14.16
10.49
5.71
0.14
-5.92
-12.34
-19.18
-26.80
-35.66
-46.11
-57.95
-70.21
-80.97
-87.71
-87.87
-79.73
-63.01
-39.19
-11.20
17.33
43.01
63.36
77.01
83.71
83.92
78.57
68.98
56.81
43.93
32.25
23.27
17.78
15.63
15.90
17.19
18.08
17.57
15.18
11.02
5.52
-0.75
-7.36
-14.06
-20.90
-28.11
-36.13
-45.48
-56.54
-69.28
-82.88
-95.53
-104.69
-107.54
-101.96
-87.30
-64.75
-37.16
-8.18
18.67
40.76
56.59
65.64
67.95
64.01
54.69
41.51
26.63
12.52
1.45
-5.23
-7.44
-6.38
-3.95
-2.12
-2.19
-4.50
-8.56
-13.42
-18.27
-22.76
-27.21
-32.30
-38.87
-47.56
-58.62
-71.71
-85.74
-98.76
-108.12
-110.91
-104.82
-89.01
-64.55
-34.32
-2.23
27.91
53.15
71.77
83.09
87.09
84.24
75.46
62.29
46.95
32.00
19.76
11.70
8.04
7.73
9.02
10.05
9.58
7.17
3.22
-1.48
-6.23
-10.80
-15.58
-21.43
-29.36
-40.05
-53.57
-69.08
-84.73
-97.90
-105.55
-105.06
-94.88
-75.23
-48.10
-16.77
14.97
43.74
67.07
83.49
92.32
93.48
87.43
75.46
59.72
43.00
28.14
17.23
11.06
8.99
9.39
10.33
10.30
8.52
4.98
0.13
-5.53
-11.61
-17.98
-24.75
-32.23
-40.87
-51.18
-63.55
-77.80
-92.73
-105.96
-114.18
-114.02
-103.17
-81.43
-50.97
-15.76
19.62
51.26
76.61
94.55
104.87
107.83
103.90
94.08
80.05
64.29
49.57
38.29
31.75
29.85
31.22
33.85
35.76
35.61
32.95
28.11
21.80
14.77
7.41
-0.28
-8.54
-17.70
-28.04
-39.81
-53.15
-67.93
-83.31
-97.49
-107.68
-110.68
-103.93
-86.50
-59.69
-26.79
7.75
39.64
65.62
83.93
94.14
96.70
92.55
82.97
69.59
54.51
40.13
28.76
21.98
20.21
22.49
26.87
31.03
33.09
32.13
28.28
22.40
15.59
8.72
2.09
-4.46
-11.46
-19.57
-29.41
-41.33
-55.25
-70.31
-84.66
-95.58
-99.85
-94.75
-78.99
-53.40
-20.91
14.18
47.38
75.06
95.01
106.48
109.79
105.90
96.20
82.51
67.01
52.03
39.65
31.22
27.08
26.52
28.10
30.14
31.05
29.75
25.87
19.64
11.80
3.21
-5.47
-13.95
-22.36
-31.12
-40.80
-51.94
-64.98
-79.95
-96.17
-111.93
-124.39
-130.13
-126.05
-110.55
-84.24
-50.02
-12.27
24.33
55.95
80.19
96.09
103.75
103.90
97.72
86.87
73.37
59.56
47.60
39.07
34.59
33.79
35.50
38.17
40.27
40.63
38.62
34.15
27.57
19.51
10.62
1.46
-7.68
-16.78
-26.07
-35.99
-47.12
-60.00
-74.86
-91.18
-107.26
-120.23
-126.50
-122.85
-107.53
-81.11
-46.51
-8.18
29.05
61.21
85.73
101.52
108.58
107.71
100.31
88.33
74.17
60.34
48.94
41.21
37.25
36.25
36.85
37.75
38.01
37.22
35.34
32.35
28.15
22.46
15.07
6.04
-4.16
-14.74
-24.87
-34.05
-42.27
-50.12
-58.53
-68.53
-80.82
-95.32
-110.71
-124.31
-132.44
-131.42
-118.79
-94.35
-60.50
-21.55
17.53
52.48
80.52
100.43
112.09
115.97
112.97
104.42
92.33
79.18
67.48
59.06
54.60
53.54
54.46
55.75
56.18
55.22
53.01
49.98
46.40
42.15
36.73
29.60
20.49
9.68
-2.02
-13.54
-24.05
-33.25
-41.43
-49.39
-58.16
-68.61
-81.15
-95.27
-109.37
-120.70
-125.95
-122.20
-107.91
-83.69
-52.18
-17.31
16.81
46.91
70.90
87.82
97.42
99.94
96.09
87.29
75.73
64.00
54.53
48.91
47.43
49.17
52.49
55.66
57.45
57.41
55.75
53.04
49.76
46.06
41.72
36.35
29.64
21.55
12.42
2.84
-6.57
-15.33
-23.31
-30.84
-38.61
-47.48
-58.11
-70.50
-83.69
-95.59
-103.35
-104.02
-95.52
-77.35
-50.98
-19.54
12.97
42.58
66.25
82.22
90.03
90.24
84.10
73.33
59.95
46.10
33.78
24.53
19.02
17.07
17.71
19.57
21.36
22.21
21.81
20.25
17.74
14.37
9.98
4.36
-2.58
-10.57
-19.01
-27.20
-34.65
-41.36
-47.93
-55.32
-64.51
-76.00
-89.27
-102.63
-113.31
-118.16
-114.46
-100.86
-78.01
-48.48
-16.12
14.94
41.21
60.52
72.07
76.13
73.67
66.08
55.04
42.49
30.44
20.69
14.41
11.88
12.46
14.90
17.76
19.83
20.37
19.10
16.09
11.55
5.85
-0.58
-7.31
-13.97
-20.42
-26.85
-33.73
-41.74
-51.53
-63.41
-76.96
-90.71
-102.12
-108.06
-105.64
-93.30
-71.51
-42.88
-11.39
18.78
44.19
62.84
74.01
77.92
75.28
67.16
54.99
40.65
26.28
13.94
5.15
0.49
-0.47
1.01
3.26
4.74
4.44
2.00
-2.26
-7.71
-13.65
-19.59
-25.39
-31.24
-37.60
-45.09
-54.29
-65.47
-78.25
-91.38
-102.60
-109.07
-108.07
-97.85
-78.35
-51.35
-20.17
11.25
39.30
61.43
76.35
83.93
84.79
79.92
70.54
58.12
44.34
31.09
20.07
12.41
8.45
7.56
8.41
9.41
9.18
6.97
2.77
-2.85
-9.02
-15.05
-20.64
-26.02
-31.78
-38.67
-47.40
-58.42
-71.64
-86.16
-100.10
-110.66
-114.69
-109.64
-94.51
-70.47
-40.58
-9.02
20.18
44.09
61.19
71.21
74.62
72.23
65.07
54.48
42.22
30.24
20.44
14.17
11.84
12.88
15.90
19.13
20.91
20.21
16.76
11.11
4.16
-3.12
-10.14
-16.79
-23.48
-30.86
-39.65
-50.42
-63.29
-77.67
-92.00
-103.75
-109.79
-107.19
-94.26
-71.21
-40.39
-5.69
28.49
58.37
81.42
96.60
103.94
104.24
98.66
88.66
76.04
62.84
51.10
42.43
37.68
36.66
38.26
40.83
42.67
42.61
40.17
35.53
29.30
22.16
14.59
6.89
-0.83
-8.61
-16.61
-25.18
-34.90
-46.29
-59.53
-73.87
-87.39
-97.18
-100.06
-93.60
-77.09
-51.92
-21.31
10.61
39.87
63.51
79.91
88.59
89.84
84.47
73.74
59.37
43.50
28.36
15.93
7.41
3.08
2.32
3.97
6.73
9.49
11.44
12.14
11.27
8.68
4.37
-1.46
-8.36
-15.74
-23.06
-30.07
-36.99
-44.42
-53.21
-64.00
-76.86
-90.82
-103.71
-112.48
-113.82
-105.20
-85.80
-56.94
-21.86
15.13
49.73
78.54
99.42
111.60
115.30
111.59
102.19
89.32
75.46
62.92
53.33
47.43
45.00
45.08
46.44
47.92
48.62
48.00
45.79
41.83
36.07
28.55
19.47
9.32
-1.24
-11.51
-21.02
-29.63
-37.67
-45.76
-54.70
-65.17
-77.43
-91.01
-104.44
-115.17
-120.02
-115.98
-101.29
-76.24
-43.37
-6.83
28.72
59.34
82.48
97.15
103.53
102.58
95.69
84.59
71.38
58.29
47.33
39.78
36.00
35.38
36.72
38.74
40.40
41.11
40.63
38.84
35.58
30.69
24.09
16.01
6.96
-2.40
-11.50
-20.08
-28.28
-36.63
-45.93
-56.94
-70.06
-84.84
-99.63
-111.57
-117.17
-113.27
-98.26
-72.82
-39.97
-4.18
29.85
58.43
79.38
92.04
96.76
94.47
86.44
74.32
60.14
46.14
34.31
25.98
21.52
20.37
21.38
23.25
24.88
25.57
24.92
22.73
18.89
13.44
6.53
-1.49
-10.13
-18.90
-27.48
-35.77
-44.03
-52.76
-62.62
-74.06
-86.93
-100.04
-111.00
-116.62
-113.74
-100.40
-76.70
-45.03
-9.47
25.35
55.51
78.49
93.30
100.12
99.76
93.41
82.54
69.00
54.92
42.43
33.16
27.89
26.38
27.54
29.89
32.03
32.97
32.21
29.73
25.68
20.39
14.17
7.34
0.23
-6.95
-14.08
-21.29
-28.87
-37.37
-47.31
-58.95
-71.84
-84.52
-94.48
-98.71
-94.51
-80.53
-57.47
-28.03
3.78
33.79
58.62
76.22
85.80
87.43
81.76
69.94
53.69
35.34
17.65
3.30
-5.83
-9.01
-6.85
-0.85
7.08
15.18
22.18
27.31
30.23
30.85
29.32
25.96
21.21
15.55
9.42
3.05
-3.63
-10.92
-19.47
-30.00
-43.17
-58.95
-76.25
-92.63
-104.65
-108.80
-102.66
-85.88
-60.43
-30.03
0.98
28.82
50.86
65.80
73.38
73.95
68.41
58.16
45.11
31.43
19.16
9.72
3.70
0.94
0.78
2.37
4.93
7.73
10.08
11.36
11.05
8.86
4.95
-0.20
-5.91
-11.51
-16.62
-21.19
-25.64
-30.74
-37.52
-46.93
-59.34
-73.95
-88.49
-99.41
-102.83
-95.79
-77.52
-49.89
-16.89
16.54
46.01
68.58
83.06
89.56
88.98
82.58
71.83
58.48
44.44
31.59
21.38
14.54
11.01
10.01
10.43
11.02
10.79
9.14
5.96
1.54
-3.59
-8.91
-14.10
-19.18
-24.40
-30.16
-36.88
-44.87
-54.22
-64.74
-75.64
-85.42
-91.89
-92.69
-85.90
-70.81
-48.39
-21.09
7.71
34.59
56.79
72.57
81.18
82.71
77.85
67.87
54.61
40.29
27.22
17.25
11.35
9.44
10.48
12.99
15.49
16.92
16.76
14.97
11.82
7.67
2.86
-2.42
-8.17
-14.55
-21.97
-30.93
-41.77
-54.29
-67.36
-78.82
-85.80
-85.58
-76.52
-58.73
-34.19
-6.24
21.44
45.68
64.34
76.30
81.20
79.26
71.22
58.50
43.22
27.91
14.97
6.01
1.39
0.32
1.19
2.28
2.25
0.54
-2.79
-7.21
-12.18
-17.44
-23.15
-29.80
-38.02
-48.39
-61.17
-76.12
-92.32
-107.97
-120.50
-126.99
-124.91
-112.98
-91.73
-63.52
-31.95
-0.91
26.29
47.38
61.18
67.34
66.18
58.69
46.57
32.24
18.37
7.28
0.42
-2.03
-1.01
1.82
4.66
6.10
5.38
2.45
-2.20
-7.89
-13.99
-20.23
-26.72
-34.02
-42.88
-54.02
-67.64
-83.06
-98.35
-110.50
-116.02
-112.01
-97.17
-72.40
-40.63
-5.94
27.52
56.41
78.60
93.07
99.66
98.82
91.69
80.06
66.27
52.86
42.04
35.20
32.61
33.45
36.17
38.96
40.24
39.06
35.37
29.79
23.25
16.54
9.98
3.37
-3.78
-12.01
-21.79
-33.46
-47.18
-62.64
-78.72
-93.08
-102.42
-103.28
-93.21
-71.82
-41.18
-5.30
31.07
63.69
89.65
107.52
117.05
118.73
113.57
103.08
89.31
74.67
61.53
51.62
45.62
43.10
42.87
43.48
43.82
43.26
41.61
38.81
34.76
29.24
22.11
13.44
3.61
-6.78
-17.07
-26.83
-35.93
-44.62
-53.59
-63.70
-75.66
-89.47
-103.89
-116.29
-123.07
-120.71
-107.06
-82.23
-48.78
-11.06
26.11
58.58
83.64
100.14
108.07
108.24
101.93
90.96
77.60
64.31
53.30
45.96
42.62
42.51
44.24
46.33
47.73
47.97
47.05
45.17
42.35
38.39
32.97
25.87
17.24
7.56
-2.42
-12.05
-20.95
-29.19
-37.28
-45.92
-55.80
-67.22
-79.73
-91.87
-101.25
-104.94
-100.33
-86.02
-62.51
-32.21
1.16
33.50
61.34
82.33
95.38
100.42
98.14
89.88
77.46
63.12
49.15
37.51
29.42
25.16
24.15
25.25
27.20
28.89
29.55
28.81
26.51
22.67
17.42
10.95
3.53
-4.52
-12.90
-21.36
-29.79
-38.23
-46.90
-56.21
-66.54
-77.97
-89.87
-100.61
-107.64
-108.06
-99.54
-81.35
-54.82
-23.09
9.61
39.18
62.51
77.95
85.18
84.92
78.50
67.65
54.36
40.72
28.65
19.58
14.16
12.26
13.00
15.16
17.48
18.94
18.87
17.04
13.51
8.60
2.73
-3.68
-10.28
-16.89
-23.52
-30.37
-37.80
-46.26
-56.21
-67.84
-80.73
-93.53
-103.88
-108.80
-105.45
-92.18
-69.18
-38.72
-4.59
28.92
58.04
80.24
94.43
100.69
99.87
93.23
82.31
68.84
54.69
41.70
31.35
24.55
21.43
21.33
23.04
25.12
26.28
25.65
22.99
18.58
12.97
6.74
0.27
-6.36
-13.21
-20.45
-28.23
-36.80
-46.49
-57.61
-70.05
-82.83
-93.89
-100.32
-99.23
-88.71
-68.72
-41.30
-10.03
20.96
48.06
68.81
82.11
87.95
87.07
80.61
70.05
57.08
43.56
31.30
21.70
15.54
12.76
12.60
13.85
15.27
15.91
15.27
13.31
10.25
6.36
1.85
-3.12
-8.43
-14.00
-19.79
-25.90
-32.68
-40.66
-50.26
-61.45
-73.31
-83.86
-90.31
-89.84
-80.52
-62.17
-36.60
-7.17
22.17
47.91
67.76
80.69
86.74
86.52
80.95
71.22
58.91
45.87
34.02
24.91
19.34
17.23
17.72
19.61
21.61
22.80
22.56
20.71
17.40
12.97
7.95
2.69
-2.64
-8.16
-14.23
-21.32
-29.84
-39.91
-51.26
-62.93
-73.21
-79.84
-80.45
-73.27
-57.96
-35.87
-9.83
16.57
40.00
58.05
69.58
74.45
73.20
66.70
56.13
42.99
29.10
16.37
6.43
0.19
-2.38
-2.18
-0.69
0.58
0.53
-1.26
-4.49
-8.47
-12.47
-16.12
-19.55
-23.37
-28.41
-35.42
-44.81
-56.42
-69.38
-82.04
-92.07
-96.83
-94.02
-82.47
-62.64
-36.75
-8.16
19.42
42.89
60.18
70.39
73.47
69.98
61.01
48.16
33.55
19.55
8.22
0.85
-2.40
-2.47
-0.97
0.41
0.45
-1.37
-4.87
-9.45
-14.46
-19.46
-24.39
-29.55
-35.43
-42.67
-51.79
-62.97
-75.74
-88.63
-99.20
-104.42
-101.59
-89.34
-68.24
-40.88
-11.03
17.51
41.78
60.13
72.00
77.41
76.67
70.25
59.18
45.23
30.87
18.69
10.71
7.58
8.53
11.61
14.58
15.69
14.20
10.42
5.29
-0.25
-5.61
-10.78
-16.16
-22.39
-30.06
-39.62
-51.25
-64.59
-78.52
-90.98
-99.19
-100.28
-92.23
-74.67
-49.30
-19.50
10.60
37.25
57.86
71.28
77.51
77.28
71.58
61.64
48.93
35.32
22.82
13.20
7.48
5.65
6.69
8.97
10.78
10.91
8.89
4.99
-0.00
-5.28
-10.34
-15.20
-20.31
-26.41
-34.25
-44.35
-56.73
-70.69
-84.67
-96.32
-102.80
-101.50
-90.86
-70.95
-43.67
-12.33
19.20
47.37
69.58
84.39
91.41
91.11
84.65
73.69
60.32
46.78
35.11
26.76
22.32
21.45
23.13
25.99
28.67
30.21
30.10
28.31
25.13
20.95
16.13
10.85
5.11
-1.26
-8.58
-17.26
-27.63
-39.67
-52.60
-64.71
-73.48
-76.08
-70.26
-55.19
-31.92
-3.19
27.28
55.77
79.34
96.18
105.55
107.52
102.74
92.48
78.56
63.28
49.02
37.78
30.65
27.54
27.36
28.35
28.80
27.49
23.94
18.39
11.52
4.05
-3.49
-10.88
-18.22
-25.79
-34.00
-43.34
-54.32
-67.29
-82.01
-97.28
-110.72
-119.16
-119.41
-109.40
-89.02
-60.44
-27.47
5.44
34.48
57.07
72.02
79.21
79.12
72.65
61.20
46.72
31.65
18.41
8.92
3.99
3.23
5.29
8.42
10.98
11.84
10.51
6.97
1.55
-5.25
-12.87
-20.77
-28.54
-36.03
-43.43
-51.33
-60.60
-71.96
-85.47
-100.02
-113.12
-121.32
-121.08
-110.06
-88.04
-57.24
-21.73
13.75
45.04
69.40
85.66
93.83
94.62
89.12
78.80
65.59
51.85
39.95
31.76
28.11
28.63
31.98
36.38
40.14
42.09
41.65
38.81
33.90
27.44
20.03
12.21
4.33
-3.45
-11.27
-19.53
-28.80
-39.70
-52.57
-67.19
-82.29
-95.51
-103.67
-103.63
-93.32
-72.66
-43.79
-10.58
22.52
51.61
74.09
88.82
95.77
95.54
89.20
78.22
64.58
50.57
38.39
29.62
24.90
23.80
25.20
27.72
30.12
31.51
31.36
29.44
25.80
20.69
14.52
7.74
0.73
-6.36
-13.51
-20.88
-28.70
-37.32
-47.14
-58.38
-70.68
-82.65
-91.79
-94.94
-89.27
-73.39
-48.07
-16.25
17.76
49.58
75.76
94.39
104.98
108.05
104.63
96.00
83.76
69.83
56.37
45.35
38.10
34.95
35.19
37.37
39.88
41.45
41.32
39.28
35.46
30.16
23.72
16.54
8.97
1.31
-6.28
-13.89
-21.80
-30.46
-40.42
-51.93
-64.70
-77.43
-87.77
-92.71
-89.44
-76.44
-54.25
-25.53
5.65
35.01
59.16
76.19
85.63
87.92
83.99
75.02
62.50
48.28
34.46
22.99
15.24
11.58
11.41
13.37
15.85
17.39
17.05
14.45
9.74
3.46
-3.71
-11.16
-18.49
-25.66
-32.96
-40.86
-49.93
-60.65
-73.11
-86.71
-99.91
-110.23
-114.62
-110.41
-96.23
-72.73
-42.63
-9.99
20.96
46.85
65.73
76.97
80.85
78.12
69.81
57.34
42.66
28.10
15.94
7.85
4.39
4.91
7.78
11.04
13.07
13.01
10.95
7.58
3.74
-0.01
-3.65
-7.64
-12.61
-19.13
-27.54
-38.05
-50.62
-64.75
-79.17
-91.63
-99.08
-98.52
-88.05
-67.79
-40.16
-9.11
21.01
46.65
65.70
77.44
82.08
80.24
72.87
61.26
47.19
32.81
20.19
10.88
5.50
3.69
4.34
5.95
7.11
6.80
4.59
0.64
-4.48
-10.07
-15.72
-21.28
-27.06
-33.50
-41.18
-50.59
-61.98
-75.13
-88.97
-101.37
-109.34
-109.71
-100.25
-80.59
-52.58
-19.92
12.99
42.19
64.95
80.04
87.35
87.50
81.50
70.75
57.04
42.49
29.25
19.06
12.86
10.60
11.37
13.75
16.18
17.45
16.85
14.30
10.21
5.25
0.02
-5.15
-10.31
-15.76
-21.96
-29.34
-38.18
-48.45
-59.66
-70.56
-79.20
-83.14
-80.09
-68.70
-49.23
-23.65
4.75
32.26
55.65
72.73
82.60
85.32
81.68
72.87
60.48
46.42
32.78
21.55
14.12
10.94
11.38
13.96
16.84
18.53
18.20
15.89
12.22
7.95
3.62
-0.71
-5.39
-10.94
-17.88
-26.60
-37.24
-49.53
-62.58
-74.65
-83.29
-85.79
-80.08
-65.51
-43.30
-16.31
11.78
37.42
57.96
71.85
78.57
78.23
71.51
59.61
44.43
28.46
14.35
4.28
-0.77
-1.24
1.15
4.09
5.60
4.67
1.44
-3.16
-8.00
-12.42
-16.48
-20.77
-26.11
-33.23
-42.54
-54.02
-67.12
-80.39
-91.46
-97.36
-95.32
-83.85
-63.46
-36.61
-7.02
21.53
46.05
64.75
76.77
81.79
79.89
71.63
58.45
42.68
27.23
14.80
7.08
4.31
5.42
8.46
11.47
12.98
12.39
9.87
6.07
1.70
-2.76
-7.27
-12.15
-18.09
-25.87
-36.07
-48.74
-62.89
-76.40
-86.21
-89.10
-82.75
-66.59
-42.18
-12.78
17.59
45.24
67.52
82.99
91.17
92.14
86.47
75.20
59.97
43.00
26.68
13.13
3.62
-1.66
-3.59
-3.85
-4.41
-6.97
-12.44
-20.68
-30.51
-40.20
-48.03
-52.91
-54.64
-53.97
-52.37
-51.55
-53.01
-57.44
-64.23
-71.27
-75.30
-72.71
-60.80
-38.83
-8.46
26.72
62.21
93.91
118.97
136.01
144.88
146.20
141.11
131.08
117.97
103.90
91.00
81.03
75.00
72.99
74.23
77.27
80.45
82.34
82.18
80.01
76.63
73.17
70.62
69.35
68.99
68.52
66.61
61.97
53.74
41.85
27.40
12.82
1.61
-2.40
3.63
20.32
45.39
74.10
100.57
119.62
128.28
126.30
115.64
99.32
80.10
59.76
39.03
17.95
-3.59
-25.40
-47.05
-68.01
-87.83
-106.24
-123.03
-137.93
-150.58
-160.54
-167.60
-171.92
-174.16
-175.33
-176.55
-178.69
-182.24
-187.19
-192.98
-198.51
-202.21
-202.26
-196.92
-185.10
-166.68
-142.69
-115.08
-86.29
-58.74
-34.52
-15.23
-1.85
5.18
6.26
2.64
-3.63
-10.11
-14.48
-15.12
-11.52
-4.32
4.97
14.44
22.32
27.52
29.74
29.43
27.42
24.57
21.50
18.51
15.56
12.40
8.64
4.00
-1.35
-6.42
-9.25
-7.22
2.23
20.66
47.91
82.00
119.64
157.04
190.77
218.16
237.51
247.97
249.55
243.26
231.13
216.07
201.17
188.98
180.77
176.31
174.35
173.32
172.08
170.18
167.60
164.24
159.59
152.68
142.50
128.41
110.42
89.13
65.37
40.03
14.00
-11.62
-35.33
-55.34
-69.92
-77.99
-79.51
-75.72
-68.73
-61.11
-55.19
-52.73
-54.68
-61.28
-72.26
-86.86
-104.07
-122.66
-141.46
-159.63
-176.93
-193.76
-211.11
-230.16
-251.92
-276.82
-304.51
-333.82
-362.84
-389.25
-410.73
-425.47
-432.59
-432.44
-426.29
-415.72
-401.76
-384.42
-362.68
-335.17
-300.99
-260.28
-214.12
-164.14
-112.03
-59.57
-8.89
37.15
75.17
102.16
116.54
119.02
112.40
100.69
87.70
76.04
66.75
59.75
54.39
50.02
46.18
42.49
38.52
33.78
27.90
20.80
12.80
4.52
-3.42
-10.84
-18.32
-27.16
-38.93
-54.60
-73.65
-93.62
-110.43
-119.51
-117.32
-102.38
-75.61
-39.88
0.97
42.89
82.15
115.52
140.45
155.27
159.61
154.62
142.82
127.49
111.91
98.57
88.86
82.96
80.15
79.11
78.37
76.67
73.19
67.73
60.54
52.21
43.29
34.14
24.72
14.49
2.48
-12.44
-30.98
-52.80
-75.94
-96.86
-111.19
-114.86
-105.40
-82.75
-49.24
-8.88
33.73
74.38
109.81
137.73
156.69
165.94
165.60
156.79
141.76
123.60
105.68
90.85
80.77
75.63
74.24
74.68
74.99
73.90
71.03
66.77
61.86
56.88
51.90
46.39
39.35
29.56
15.94
-1.96
-23.47
-46.39
-67.07
-80.98
-83.86
-73.08
-48.64
-13.31
28.17
70.41
108.75
140.06
162.74
176.39
181.18
177.71
167.02
150.88
131.69
112.23
95.03
81.72
72.69
67.10
63.35
59.71
54.89
48.40
40.56
32.10
23.79
15.97
8.45
0.61
-8.44
-19.61
-33.56
-50.38
-69.29
-88.22
-103.93
-112.45
-110.21
-95.19
-67.89
-31.30
9.85
50.40
86.01
113.90
132.76
142.41
143.31
136.37
123.02
105.35
86.01
67.79
52.96
42.69
36.85
34.13
32.73
30.97
27.86
23.26
17.68
11.83
6.18
